"time","x","y","position","velocity","acceleration","jerk","heading"
0,39.3048,116.809,0,0,0,0,0
0.02,39.4923,116.809,0.187549,9.37744,468.872,23443.6,0.00745076
0.04,39.68,116.809,0.375198,9.38244,0.250015,-23431.1,0.0149015
0.06,39.8675,116.809,0.562746,9.37744,-0.250043,-25.0029,0.0223523
0.08,40.0552,116.809,0.750395,9.38244,0.250072,25.0058,0.029803
0.1,40.2427,116.81,0.937947,9.37757,-0.243424,-24.6748,0.0372538
0.12,40.6207,116.81,1.31591,18.8981,476.024,23813.4,0.063365
0.14,41.0693,116.81,1.76447,22.4282,176.507,-14975.9,0.0963943
0.16,41.588,116.811,2.28317,25.9348,175.329,-58.89,0.14906
0.18,42.1651,116.813,2.86026,28.8546,145.992,-1466.84,0.218024
0.2,42.8244,116.816,3.51962,32.9682,205.68,2984.42,0.337317
0.22,43.5342,116.821,4.22943,35.4902,126.099,-3979.07,0.483524
0.24,44.3035,116.828,4.99875,38.4662,148.799,1135.04,0.666107
0.26,45.1307,116.839,5.82602,41.3633,144.856,-197.154,0.904103
0.28,46.0131,116.856,6.70861,44.1298,138.323,-326.648,1.20949
0.3,46.9522,116.878,7.648,46.9695,141.984,183.045,1.57493
0.32,47.9375,116.909,8.63372,49.2859,115.823,-1308.09,2.03257
0.34,48.969,116.95,9.66601,51.6148,116.443,31.0342,2.57612
0.36,50.0408,117.004,10.7392,53.6604,102.281,-708.113,3.21972
0.38,51.1467,117.073,11.8472,55.4011,87.0377,-762.166,3.97898
0.4,52.2927,117.162,12.9967,57.4705,103.469,821.573,4.87506
0.42,53.4593,117.271,14.1685,58.5907,56.0106,-2372.93,5.92024
0.44,54.6519,117.407,15.3687,60.0102,70.9725,748.095,7.13046
0.46,55.8537,117.572,16.5817,60.652,32.0883,-1944.21,8.5301
0.48,57.0657,117.77,17.8099,61.4081,37.8092,286.046,10.1426
0.5,58.2525,118.001,19.0189,60.4513,-47.84,-4282.46,11.9738
0.52,59.3631,118.255,20.1583,56.9699,-174.07,-6311.52,13.9119
0.54,60.3683,118.523,21.1986,52.0137,-247.809,-3686.94,15.9587
0.56,61.2877,118.803,22.1597,48.0539,-197.991,2490.91,18.0645
0.58,62.1275,119.094,23.0484,44.4358,-180.905,854.324,20.2511
0.6,62.8917,119.393,23.8689,41.0273,-170.425,523.953,22.5068
0.62,63.5963,119.701,24.6379,38.4513,-128.8,2081.26,24.8099
0.64,64.2385,120.013,25.352,35.7026,-137.434,-431.661,27.186
0.66,64.8297,120.333,26.0241,33.6027,-105,1621.68,29.6075
0.68,65.3793,120.66,26.664,31.9971,-80.2778,1236.11,32.0624
0.7,65.8876,120.994,27.2718,30.3894,-80.3844,-5.33185,34.5579
0.72,66.3621,121.336,27.8568,29.2501,-56.963,1171.07,37.0845
0.74,66.8102,121.691,28.4283,28.5776,-33.6252,1166.89,39.6256
0.76,67.2352,122.058,28.9902,28.093,-24.231,469.711,42.1779
0.78,67.6415,122.443,29.5502,27.9989,-4.70581,976.258,44.7343
0.8,68.0332,122.849,30.114,28.1913,9.61855,716.218,47.2838
0.82,68.4136,123.28,30.689,28.7479,27.8302,910.585,49.8202
0.84,68.7858,123.742,31.2819,29.6455,44.88,852.487,52.3375
0.86,69.1511,124.237,31.8973,30.7719,56.3193,571.966,54.8244
0.88,69.5117,124.774,32.5441,32.342,78.5053,1109.3,57.2713
0.9,69.869,125.357,33.2277,34.1775,91.7782,663.641,59.678
0.92,70.22,125.988,33.9496,36.0977,96.0089,211.535,62.046
0.94,70.5699,126.681,34.7264,38.8386,137.042,2051.65,64.3414
0.96,70.9132,127.434,35.5542,41.3875,127.449,-479.621,66.5872
0.98,71.2501,128.257,36.4429,44.4368,152.461,1250.57,68.7761
1,71.58,129.157,37.4014,47.923,174.31,1092.46,70.8834
1.02,71.9001,130.139,38.4348,51.6697,187.339,651.424,72.9329
1.04,72.208,131.21,39.5487,55.6985,201.44,705.077,74.8991
1.06,72.5014,132.376,40.7515,60.1379,221.966,1026.3,76.7944
1.08,72.7781,133.649,42.0542,65.1337,249.791,1391.22,78.5955
1.1,73.0249,134.974,43.4024,67.411,113.866,-6796.26,80.2535
1.12,73.2349,136.301,44.7454,67.1532,-12.89,-6337.78,81.7
1.14,73.4103,137.611,46.0674,66.0963,-52.8468,-1997.84,82.9818
1.16,73.5563,138.901,47.3657,64.917,-58.9649,-305.903,84.0725
1.18,73.6759,140.162,48.632,63.3148,-80.1074,-1057.13,85.041
1.2,73.7734,141.392,49.8659,61.695,-80.9886,-44.0617,85.8643
1.22,73.8514,142.582,51.0585,59.6297,-103.265,-1113.84,86.5931
1.24,73.9135,143.731,52.2092,57.5359,-104.693,-71.3979,87.1965
1.26,73.962,144.834,53.3132,55.1997,-116.81,-605.838,87.7272
1.28,73.9996,145.892,54.3722,52.9496,-112.503,215.348,88.1697
1.3,74.0282,146.898,55.3783,50.3061,-132.172,-983.437,88.5449
1.32,74.0496,147.848,56.3287,47.5196,-139.328,-357.8,88.8631
1.34,74.0653,148.744,57.2242,44.7744,-137.257,103.54,89.1113
1.36,74.0765,149.576,58.0571,41.647,-156.372,-955.746,89.3196
1.38,74.0844,150.346,58.8271,38.4971,-157.495,-56.1247,89.4862
1.4,74.0898,151.057,59.5377,35.5302,-148.347,457.388,89.6158
1.42,74.0934,151.716,60.1967,32.9506,-128.978,968.454,89.7197
1.44,74.0957,152.29,60.7712,28.7257,-211.247,-4113.47,89.7976
1.46,74.0972,152.801,61.2822,25.5498,-158.792,2622.74,89.8565
1.48,74.098,153.248,61.7288,22.3269,-161.145,-117.601,89.8962
1.5,74.0985,153.613,62.094,18.264,-203.144,-2099.99,89.9264
1.52,74.0987,153.801,62.2813,9.36431,-444.987,-12092.1,89.9358
1.54,74.0989,153.988,62.4686,9.36431,-7.6651e-08,22249.4,89.9452
1.56,74.099,154.174,62.6549,9.3143,-2.5002,-125.01,89.9546
1.58,74.0991,154.361,62.8422,9.3643,2.5,250.01,89.964
