"time","x","y","position","velocity","acceleration","jerk","heading"
0,261.761,17.4925,0,0,0,0,0
0.02,261.934,17.4925,0.173066,8.65332,432.666,21633.3,0.000308397
0.04,262.108,17.4925,0.347133,8.70332,2.5,-21508.3,0.000616793
0.06,262.281,17.4925,0.520199,8.65332,-2.5,-250,0.00092519
0.08,262.454,17.4925,0.693266,8.65332,1.61663e-06,125,0.00123359
0.1,262.627,17.4925,0.866332,8.65332,-5.3889e-06,-0.000350276,0.00154198
0.12,262.856,17.4925,1.09547,11.457,140.183,7009.16,0.00219042
0.14,263.275,17.4925,1.51386,20.9195,473.126,16647.1,0.0040001
0.16,263.693,17.4925,1.93225,20.9195,-1.98614e-09,-23656.3,0.00580978
0.18,264.218,17.4926,2.45698,26.2366,265.856,13292.8,0.00920755
0.2,264.764,17.4927,3.00278,27.29,52.669,-10659.3,0.012919
0.22,265.412,17.4929,3.65107,32.4143,256.217,10177.4,0.0188886
0.24,266.1,17.4931,4.33862,34.3773,98.1467,-7903.51,0.0260583
0.26,266.842,17.4935,5.08054,37.0961,135.941,1889.73,0.0349745
0.28,267.656,17.4941,5.89511,40.7285,181.62,2283.92,0.0468959
0.3,268.531,17.4949,6.77023,43.7563,151.391,-1511.45,0.0613974
0.32,269.465,17.496,7.70395,46.6859,146.477,-245.661,0.0786394
0.34,270.459,17.4976,8.69834,49.7196,151.688,260.529,0.099011
0.36,271.513,17.4996,9.75151,52.6584,146.937,-237.561,0.122974
0.38,272.627,17.5022,10.8656,55.705,152.333,269.805,0.151261
0.4,273.801,17.5057,12.0396,58.7016,149.83,-125.147,0.183863
0.42,275.042,17.5101,13.2808,62.058,167.822,899.589,0.221688
0.44,276.342,17.5155,14.581,65.0117,147.68,-1007.07,0.264471
0.46,277.7,17.5224,15.9395,67.9229,145.56,-105.999,0.312906
0.48,279.123,17.5309,17.3624,71.1456,161.135,778.729,0.36805
0.5,280.607,17.5411,18.8457,74.1646,150.95,-509.248,0.429548
0.52,282.15,17.5536,20.3895,77.1913,151.337,19.377,0.498102
0.54,283.756,17.5686,21.995,80.2749,154.18,142.115,0.574318
0.56,285.426,17.5865,23.6654,83.5202,162.262,404.132,0.659256
0.58,287.154,17.6079,25.3936,86.4106,144.52,-887.127,0.752417
0.6,288.945,17.6329,27.1848,89.5585,157.399,643.931,0.854473
0.62,290.8,17.6624,29.0402,92.7694,160.546,157.398,0.966549
0.64,292.717,17.6967,30.9569,95.8327,153.165,-369.077,1.0888
0.66,294.694,17.7366,32.9348,98.8968,153.205,1.99577,1.22121
0.68,296.735,17.7826,34.9761,102.064,158.341,256.823,1.36393
0.7,298.837,17.8354,37.0787,105.132,153.392,-247.487,1.51692
0.72,301,17.8957,39.2426,108.197,153.256,-6.78516,1.67979
0.74,303.226,17.9644,41.4698,111.356,157.994,236.885,1.85186
0.76,305.515,18.042,43.7599,114.505,157.422,-28.5994,2.03189
0.78,307.863,18.129,46.1094,117.477,148.617,-440.244,2.21727
0.8,310.27,18.2262,48.5189,120.473,149.802,59.2774,2.40535
0.82,312.74,18.334,50.9904,123.578,155.222,270.965,2.59203
0.84,315.264,18.4525,53.5181,126.383,140.282,-746.989,2.77266
0.86,317.848,18.5815,56.1053,129.359,148.766,424.224,2.93968
0.88,320.485,18.7204,58.7455,132.012,132.646,-806,3.08636
0.9,323.177,18.8686,61.442,134.826,140.728,404.08,3.2046
0.92,325.92,19.0244,64.1891,137.355,126.437,-714.524,3.28674
0.94,328.714,19.1861,66.9879,139.94,129.251,140.669,3.3245
0.96,331.556,19.3512,69.8344,142.322,119.118,-506.638,3.31358
0.98,334.447,19.5172,72.7302,144.792,123.46,217.122,3.24884
1,337.388,19.6815,75.676,147.292,125.008,77.3933,3.13385
1.02,340.349,19.8397,78.6409,148.246,47.6944,-3865.69,2.97442
1.04,343.303,19.9883,81.5991,147.911,-16.7442,-3221.93,2.77691
1.06,346.252,20.1258,84.5506,147.574,-16.8256,-4.07113,2.55528
1.08,349.198,20.2512,87.5001,147.476,-4.90986,595.786,2.31777
1.1,352.143,20.3641,90.4466,147.32,-7.77422,-143.218,2.07285
1.12,355.089,20.4644,93.3945,147.397,3.81243,579.332,1.82788
1.14,358.035,20.5522,96.3423,147.39,-0.327346,-206.989,1.58882
1.16,360.985,20.6281,99.293,147.535,7.22292,377.513,1.36011
1.18,363.939,20.6926,102.247,147.716,9.06332,92.0199,1.14486
1.2,366.895,20.7464,105.204,147.822,5.31833,-187.25,0.94513
1.22,369.855,20.7905,108.165,148.047,11.2206,295.116,0.762344
1.24,372.82,20.8256,111.129,148.24,9.67354,-77.3548,0.59808
1.26,375.787,20.8527,114.097,148.382,7.11628,-127.863,0.452055
1.28,378.76,20.8727,117.07,148.639,12.8505,286.712,0.325503
1.3,381.707,20.8867,120.017,147.356,-64.1742,-3851.24,0.219201
1.32,384.599,20.8954,122.909,144.588,-138.418,-3712.18,0.134486
1.34,387.435,20.9004,125.745,141.804,-139.186,-38.4008,0.0698806
1.36,390.215,20.9026,128.524,138.978,-141.278,-104.626,0.0261159
1.38,392.94,20.9032,131.25,136.284,-134.718,328.003,0.00143501
1.4,395.609,20.9031,133.919,133.458,-141.278,-327.981,-0.00242041
1.42,398.224,20.9035,136.534,130.733,-136.295,249.152,0.0237964
1.44,400.772,20.9045,139.081,127.37,-168.125,-1591.5,0.00709868
1.46,403.249,20.9037,141.559,123.888,-174.082,-297.846,-0.0450096
1.48,405.669,20.9006,143.978,120.963,-146.292,1389.48,-0.0995245
1.5,408.033,20.8958,146.343,118.217,-137.272,451.021,-0.121154
1.52,410.351,20.8911,148.661,115.904,-115.634,1081.88,-0.0836486
1.54,412.631,20.8899,150.941,113.991,-95.6663,998.393,0.0500671
1.56,414.883,20.8967,153.193,112.617,-68.7312,1346.75,0.339191
1.58,417.116,20.9181,155.425,111.625,-49.5629,958.414,0.818937
1.6,419.336,20.9618,157.646,111.033,-29.5938,998.458,1.52072
1.62,421.548,21.0371,159.86,110.677,-17.8353,587.925,2.46426
1.64,423.747,21.1528,162.061,110.083,-29.6742,-591.948,3.63329
1.66,425.928,21.3167,164.248,109.358,-36.2696,-329.768,5.01052
1.68,428.069,21.5319,166.401,107.61,-87.3951,-2556.28,6.49993
1.7,430.148,21.7965,168.496,104.789,-141.021,-2681.27,8.02003
1.72,432.15,22.1049,170.522,101.268,-176.05,-1751.49,9.48809
1.74,434.067,22.4493,172.47,97.3846,-194.196,-907.264,10.8598
1.76,435.879,22.8174,174.319,92.4827,-245.092,-2544.8,12.07
1.78,437.597,23.202,176.079,87.9838,-224.946,1007.28,13.1355
1.8,439.217,23.5946,177.746,83.3671,-230.836,-294.52,14.0542
1.82,440.742,23.988,179.322,78.7658,-230.066,38.5235,14.8178
1.84,442.179,24.3772,180.809,74.3977,-218.403,583.14,15.4674
1.86,443.533,24.7596,182.217,70.3824,-200.763,882.027,16.0106
1.88,444.812,25.1324,183.549,66.5847,-189.889,543.694,16.4671
1.9,446.006,25.4901,184.796,62.3468,-211.894,-1100.25,16.8377
1.92,447.131,25.8339,185.972,58.7921,-177.734,1708,17.1504
1.94,448.185,26.1623,187.076,55.2304,-178.084,-17.5279,17.411
1.96,449.172,26.4739,188.111,51.7154,-175.751,116.65,17.6215
1.98,450.093,26.7682,189.078,48.3684,-167.352,419.982,17.7944
2,450.953,27.0454,189.982,45.1836,-159.241,405.554,17.9363
2.02,451.748,27.3038,190.817,41.7669,-170.832,-579.594,18.0503
2.04,452.471,27.5398,191.577,38.0295,-186.871,-801.94,18.1384
2.06,453.136,27.7586,192.278,35.0395,-149.498,1868.67,18.2104
2.08,453.763,27.9651,192.938,32.9792,-103.019,2323.95,18.2711
2.1,454.289,28.1389,193.492,27.6999,-263.965,-8047.28,18.3104
2.12,454.793,28.3062,194.023,26.5728,-56.3526,10380.6,18.3468
2.14,455.195,28.4393,194.446,21.1433,-271.476,-10756.2,18.3681
2.16,455.596,28.5727,194.869,21.1465,0.15754,13581.7,18.3894
2.18,455.815,28.6455,195.1,11.5307,-480.787,-24047.2,18.3983
2.2,455.98,28.7005,195.274,8.70121,-141.476,16965.6,18.4036
2.22,456.145,28.7556,195.448,8.70013,-0.0538868,7071.08,18.4088
2.24,456.311,28.8106,195.623,8.74757,2.37228,121.308,18.414
2.26,456.476,28.8657,195.797,8.70121,-2.31839,-234.534,18.4193
