"time","x","y","position","velocity","acceleration","jerk","heading"
0,439.129,41.7798,0,0,0,0,180
0.02,438.956,41.7798,0.172711,8.63556,431.778,21588.9,179.999
0.04,438.784,41.7798,0.345134,8.62113,-0.721803,-21625,179.997
0.06,438.61,41.7798,0.518845,8.68556,3.2218,197.18,179.996
0.08,438.438,41.7798,0.691268,8.62113,-3.2218,-322.18,179.994
0.1,438.265,41.7798,0.863979,8.63556,0.721803,197.18,179.993
0.12,438.037,41.7798,1.09211,11.4067,138.556,6891.73,179.99
0.14,437.621,41.7799,1.50838,20.8134,470.335,16588.9,179.984
0.16,437.204,41.78,1.92465,20.8134,1.83396e-08,-23516.7,179.978
0.18,436.684,41.7802,2.44518,26.0268,260.669,13033.5,179.966
0.2,436.143,41.7806,2.98614,27.0479,51.0567,-10480.6,179.952
0.22,435.503,41.7812,3.6255,31.968,246.004,9747.37,179.929
0.24,434.825,41.7822,4.30371,33.9103,97.1139,-7444.51,179.902
0.26,434.095,41.7836,5.03376,36.5025,129.614,1625.02,179.871
0.28,433.321,41.7856,5.80806,38.715,110.62,-949.701,179.827
0.3,432.537,41.7883,6.5922,39.2073,24.6172,-4300.15,179.779
0.32,431.752,41.7916,7.37691,39.2353,1.39763,-1160.98,179.726
0.34,430.969,41.7957,8.16017,39.1633,-3.59951,-249.857,179.668
0.36,430.188,41.8006,8.94113,39.048,-5.76292,-108.17,179.602
0.38,429.408,41.8065,9.72123,39.005,-2.14822,180.735,179.533
0.4,428.63,41.8133,10.4993,38.9044,-5.03231,-144.204,179.457
0.42,427.853,41.8211,11.2757,38.8183,-4.30486,36.3721,179.375
0.44,427.078,41.8301,12.0509,38.7612,-2.85459,72.5138,179.289
0.46,426.304,41.8403,12.825,38.7042,-2.85009,0.22497,179.199
0.48,425.533,41.8518,13.5965,38.5753,-6.44723,-179.857,179.1
0.5,424.764,41.8645,14.3656,38.4541,-6.05769,19.4767,178.996
0.52,423.995,41.8787,15.1345,38.4478,-0.317561,287.007,178.888
0.54,423.228,41.8943,15.9018,38.3626,-4.25794,-197.019,178.774
0.56,422.463,41.9114,16.6673,38.2777,-4.24533,0.630202,178.654
0.58,421.699,41.9301,17.4312,38.1931,-4.23123,0.705089,178.528
0.6,420.937,41.9505,18.193,38.0876,-5.27104,-51.9904,178.398
0.62,420.177,41.9727,18.9537,38.0392,-2.42086,142.509,178.261
0.64,419.418,41.9967,19.7131,37.9701,-3.45721,-51.8173,178.119
0.66,418.661,42.0224,20.4702,37.851,-5.95179,-124.729,177.972
0.68,417.905,42.0501,21.2268,37.8325,-0.925181,251.33,177.82
0.7,417.152,42.0799,21.9805,37.6859,-7.33196,-320.339,177.661
0.72,416.4,42.1116,22.7332,37.6324,-2.67285,232.956,177.498
0.74,415.649,42.1455,23.4855,37.6154,-0.849727,91.1563,177.33
0.76,414.899,42.1816,24.2358,37.5131,-5.11688,-213.358,177.158
0.78,414.151,42.2198,24.9847,37.4471,-3.29924,90.8823,176.981
0.8,413.406,42.2604,25.7313,37.3316,-5.77607,-123.842,176.799
0.82,412.66,42.3032,26.4779,37.3308,-0.0421709,286.695,176.613
0.84,411.916,42.3484,27.2241,37.3096,-1.06029,-50.9061,176.425
0.86,411.173,42.3962,27.9683,37.2106,-4.94574,-194.273,176.233
0.88,410.431,42.4462,28.7121,37.19,-1.03292,195.641,176.039
0.9,409.689,42.4989,29.4556,37.1711,-0.942845,4.50361,175.843
0.92,408.948,42.554,30.1989,37.1661,-0.250614,34.6116,175.646
0.94,408.207,42.6116,30.9421,37.1623,-0.190881,2.98667,175.448
0.96,407.467,42.6719,31.6849,37.138,-1.2147,-51.1909,175.251
0.98,406.726,42.7347,32.4279,37.1492,0.559159,88.6929,175.054
1,405.985,42.8002,33.172,37.2046,2.76917,110.501,174.86
1.02,405.243,42.8681,33.9172,37.2595,2.74781,-1.06808,174.669
1.04,404.5,42.9387,34.663,37.294,1.72354,-51.2135,174.483
1.06,403.757,43.0117,35.4103,37.3642,3.51225,89.4356,174.301
1.08,403.011,43.0874,36.1602,37.4921,6.39515,144.145,174.127
1.1,402.262,43.1655,36.9126,37.6199,6.38851,-0.332117,173.961
1.12,401.512,43.246,37.6668,37.7117,4.58902,-89.9743,173.804
1.14,400.76,43.3287,38.4236,37.8385,6.34132,87.6147,173.655
1.16,400.005,43.4137,39.1835,37.9945,7.79854,72.8613,173.516
1.18,399.246,43.5007,39.9473,38.1918,9.86334,103.24,173.39
1.2,398.483,43.59,40.7154,38.4042,10.6231,37.9874,173.278
1.22,397.717,43.6809,41.4867,38.5643,8.00288,-131.011,173.18
1.24,396.948,43.7737,42.2622,38.7747,10.521,125.908,173.096
1.26,396.173,43.868,43.0428,39.0324,12.8876,118.329,173.026
1.28,395.394,43.9637,43.8275,39.2337,10.0622,-141.27,172.973
1.3,394.61,44.0606,44.6169,39.4683,11.7324,83.5091,172.936
1.32,393.824,44.1585,45.4093,39.6239,7.77817,-197.712,172.913
1.34,393.032,44.2571,46.2072,39.8913,13.3697,279.575,172.905
1.36,392.237,44.3561,47.0087,40.0783,9.35255,-200.856,172.91
1.38,391.436,44.4555,47.8155,40.337,12.9308,178.911,172.933
1.4,390.631,44.5552,48.6265,40.5517,10.7348,-109.801,172.971
1.42,389.822,44.6546,49.4415,40.7495,9.89098,-42.1888,173.023
1.44,389.01,44.7537,50.2601,40.9323,9.14041,-37.5283,173.088
1.46,388.194,44.8521,51.0818,41.0851,7.63882,-75.0795,173.164
1.48,387.374,44.9498,51.9079,41.3014,10.8165,158.884,173.252
1.5,386.551,45.0464,52.7359,41.4023,5.04592,-288.53,173.351
1.52,385.725,45.142,53.5674,41.5744,8.60295,177.852,173.459
1.54,384.897,45.2362,54.401,41.6807,5.31854,-164.22,173.575
1.56,384.067,45.3289,55.2367,41.7867,5.2987,-0.992019,173.699
1.58,383.234,45.4199,56.0746,41.8923,5.28044,-0.913012,173.831
1.6,382.398,45.5091,56.915,42.0184,6.3061,51.283,173.969
1.62,381.562,45.5965,57.7556,42.0309,0.623759,-284.117,174.112
1.64,380.724,45.6819,58.5978,42.1137,4.1389,175.757,174.258
1.66,379.885,45.7652,59.4411,42.1609,2.36189,-88.8502,174.408
1.68,379.044,45.8463,60.2862,42.2582,4.86397,125.104,174.562
1.7,378.203,45.9253,61.1308,42.2269,-1.56621,-321.509,174.718
1.72,377.361,46.002,61.9764,42.2814,2.72779,214.7,174.875
1.74,376.518,46.0764,62.8221,42.2861,0.230363,-124.871,175.033
1.76,375.676,46.1485,63.6677,42.2765,-0.476433,-35.3398,175.191
1.78,374.833,46.2182,64.5133,42.2813,0.239769,35.8101,175.35
1.8,373.989,46.2856,65.3597,42.3226,2.06627,91.3248,175.509
1.82,373.147,46.3506,66.2044,42.2349,-4.38624,-322.625,175.666
1.84,372.304,46.4134,67.05,42.2768,2.09604,324.114,175.823
1.86,371.461,46.4737,67.895,42.254,-1.14041,-161.822,175.979
1.88,370.619,46.5318,68.7391,42.2037,-2.51604,-68.7817,176.132
1.9,369.777,46.5875,69.5828,42.1815,-1.10965,70.3195,176.284
1.92,368.935,46.6411,70.427,42.2105,1.44927,127.946,176.435
1.94,368.094,46.6924,71.2692,42.1108,-4.98703,-321.815,176.583
1.96,367.253,46.7415,72.1117,42.1258,0.753792,287.041,176.729
1.98,366.413,46.7885,72.9532,42.0765,-2.46487,-160.933,176.872
2,365.574,46.8333,73.7934,42.007,-3.47735,-50.6237,177.014
2.02,364.735,46.876,74.6332,41.9937,-0.664075,140.664,177.152
2.04,363.897,46.9167,75.4724,41.9604,-1.66692,-50.1422,177.288
2.06,363.058,46.9553,76.3117,41.9625,0.107171,88.7045,177.421
2.08,362.222,46.9921,77.1493,41.8797,-4.14349,-212.533,177.552
2.1,361.386,47.0269,77.9859,41.8325,-2.35785,89.2824,177.68
2.12,360.55,47.0599,78.8224,41.8211,-0.571476,89.3185,177.804
2.14,359.715,47.0909,79.6574,41.7532,-3.39208,-141.03,177.927
2.16,358.882,47.1202,80.4916,41.707,-2.30999,54.1043,178.047
2.18,358.048,47.1477,81.3258,41.7108,0.188368,124.918,178.164
2.2,357.215,47.1736,82.1591,41.6651,-2.28558,-123.697,178.278
2.22,356.384,47.1978,82.9905,41.5692,-4.79206,-125.324,178.389
2.24,355.553,47.2203,83.8222,41.5882,0.95015,287.111,178.498
2.26,354.722,47.2413,84.6531,41.543,-2.26358,-160.686,178.604
2.28,353.892,47.2608,85.4831,41.498,-2.25069,0.644114,178.707
2.3,353.064,47.2787,86.3111,41.403,-4.74941,-124.936,178.807
2.32,352.237,47.2952,87.1384,41.3649,-1.90401,142.27,178.901
2.34,351.413,47.3103,87.9628,41.2194,-7.27539,-268.569,178.985
2.36,350.593,47.3243,88.7828,41.002,-10.8714,-179.801,179.054
2.38,349.774,47.3373,89.6017,40.9434,-2.92845,397.148,179.119
2.4,348.958,47.3494,90.4185,40.8416,-5.08707,-107.931,179.177
2.42,348.142,47.3607,91.2342,40.7834,-2.91225,108.741,179.231
2.44,347.328,47.3712,92.0484,40.7107,-3.63576,-36.1753,179.28
2.46,346.515,47.3811,92.8618,40.667,-2.18416,72.5802,179.326
2.48,345.704,47.3903,93.6721,40.5156,-7.57008,-269.296,179.365
2.5,344.894,47.399,94.4828,40.5364,1.04241,430.624,179.402
2.52,344.085,47.4072,95.2918,40.4496,-4.34386,-269.313,179.433
2.54,343.277,47.415,96.0996,40.3916,-2.89709,72.3389,179.46
2.56,342.469,47.4223,96.9072,40.377,-0.731177,108.295,179.486
2.58,341.664,47.4294,97.7127,40.2758,-5.05932,-216.407,179.505
2.6,340.859,47.4362,98.5176,40.2469,-1.44792,180.57,179.522
2.62,340.055,47.4428,99.3214,40.189,-2.89345,-72.2764,179.535
2.64,339.252,47.4492,100.124,40.1456,-2.16742,36.3011,179.545
2.66,338.451,47.4555,100.926,40.0879,-2.8892,-36.0886,179.551
2.68,337.649,47.4617,101.727,40.0589,-1.44556,72.1818,179.555
2.7,336.85,47.4679,102.527,39.9868,-3.60901,-108.173,179.554
2.72,336.051,47.4742,103.326,39.9579,-1.44165,108.368,179.551
2.74,335.252,47.4804,104.124,39.9146,-2.16736,-36.2854,179.545
2.76,334.455,47.4868,104.922,39.8569,-2.88327,-35.7956,179.535
2.78,333.659,47.4933,105.718,39.8281,-1.43954,72.1865,179.523
2.8,332.863,47.5,106.514,39.7704,-2.88513,-72.2795,179.507
2.82,332.069,47.5069,107.308,39.7272,-2.15899,36.3073,179.488
2.84,331.275,47.5142,108.102,39.6841,-2.15871,0.0140634,179.466
2.86,330.482,47.5217,108.895,39.6698,-0.714819,72.1943,179.443
2.88,329.69,47.5296,109.687,39.5834,-4.32107,-180.312,179.414
2.9,328.899,47.5378,110.478,39.5691,-0.714162,180.345,179.384
2.92,328.108,47.5465,111.269,39.526,-2.15205,-71.8944,179.351
2.94,327.319,47.5557,112.058,39.483,-2.15127,0.0390617,179.315
2.96,326.53,47.5654,112.847,39.44,-2.15049,0.0390576,179.276
2.98,325.742,47.5756,113.635,39.4115,-1.42467,36.2909,179.235
3,324.955,47.5865,114.423,39.3686,-2.14535,-36.0339,179.191
3.02,324.169,47.5979,115.208,39.2757,-4.64396,-124.931,179.144
3.04,323.384,47.6099,115.994,39.2829,0.360467,250.221,179.094
3.06,322.598,47.6226,116.78,39.2834,0.0236224,-16.8422,179.044
3.08,321.814,47.6361,117.564,39.212,-3.57147,-179.755,178.989
3.1,321.03,47.6503,118.348,39.1982,-0.690854,144.031,178.933
3.12,320.247,47.6652,119.131,39.1699,-1.41113,-36.0136,178.875
3.14,319.464,47.681,119.914,39.1564,-0.677796,36.6665,178.816
3.16,318.681,47.6976,120.697,39.1284,-1.39707,-35.9636,178.755
3.18,317.901,47.715,121.478,39.036,-4.6213,-161.212,178.691
3.2,317.119,47.7333,122.259,39.087,2.5507,358.6,178.627
3.22,316.338,47.7524,123.041,39.0881,0.0538439,-124.843,178.563
3.24,315.557,47.7725,123.822,39.0605,-1.38081,-71.7328,178.497
3.26,314.777,47.7934,124.603,39.026,-1.72482,-17.2004,178.432
3.28,313.996,47.8153,125.384,39.0629,1.84571,178.527,178.366
3.3,313.214,47.8379,126.166,39.0785,0.77878,-53.3467,178.301
3.32,312.434,47.8616,126.947,39.0444,-1.70302,-124.09,178.237
3.34,311.652,47.8861,127.729,39.1102,3.28995,249.649,178.174
3.36,310.871,47.9114,128.51,39.0759,-1.71317,-250.156,178.112
3.38,310.088,47.9377,129.294,39.1851,5.45997,358.657,178.054
3.4,309.304,47.9646,130.078,39.2152,1.50296,-197.85,177.998
3.42,308.52,47.9925,130.862,39.1957,-0.976257,-123.961,177.944
3.44,307.735,48.021,131.648,39.3047,5.44848,321.237,177.894
3.46,306.949,48.0502,132.435,39.3135,0.444022,-250.223,177.848
3.48,306.162,48.0801,133.223,39.4013,4.3871,197.154,177.808
3.5,305.372,48.1106,134.013,39.5101,5.44275,52.7827,177.772
3.52,304.582,48.1416,134.804,39.5333,1.15957,-214.159,177.741
3.54,303.79,48.173,135.596,39.6416,5.41484,212.763,177.714
3.56,302.997,48.2049,136.39,39.6791,1.87267,-177.108,177.693
3.58,302.202,48.2371,137.186,39.7807,5.08287,160.51,177.679
3.6,301.404,48.2694,137.984,39.9173,6.82877,87.295,177.671
3.62,300.606,48.302,138.783,39.9688,2.57499,-212.689,177.67
3.64,299.806,48.3347,139.584,40.0265,2.88721,15.611,177.673
3.66,299.003,48.3672,140.387,40.1627,6.80844,196.062,177.682
3.68,298.2,48.3996,141.191,40.1992,1.82275,-249.285,177.697
3.7,297.395,48.4319,141.997,40.2852,4.30066,123.895,177.718
3.72,296.587,48.4639,142.805,40.4212,6.79898,124.916,177.745
3.74,295.779,48.4955,143.614,40.4282,0.34978,-322.46,177.776
3.76,294.97,48.5267,144.424,40.4994,3.56047,160.535,177.812
3.78,294.158,48.5575,145.236,40.6206,6.05946,124.949,177.853
3.8,293.346,48.5877,146.048,40.6128,-0.389079,-322.427,177.897
3.82,292.532,48.6173,146.863,40.7194,5.3304,285.974,177.945
3.84,291.718,48.6461,147.677,40.7257,0.317072,-250.666,177.997
3.86,290.903,48.6742,148.493,40.8033,3.88094,178.193,178.051
3.88,290.087,48.7016,149.309,40.7953,-0.401149,-214.104,178.108
3.9,289.27,48.7281,150.127,40.8728,3.87624,213.869,178.167
3.92,288.453,48.7539,150.945,40.9004,1.37964,-124.83,178.228
3.94,287.636,48.7787,151.762,40.8635,-1.84662,-161.313,178.29
3.96,286.817,48.8027,152.581,40.941,3.8754,286.101,178.354
3.98,285.999,48.8258,153.4,40.9399,-0.0574763,-196.644,178.418
4,285.181,48.8479,154.217,40.8885,-2.56812,-125.532,178.482
4.02,284.362,48.8692,155.036,40.9519,3.16791,286.802,178.547
4.04,283.544,48.8894,155.855,40.9506,-0.063417,-161.566,178.612
4.06,282.725,48.9088,156.674,40.9351,-0.776209,-35.6396,178.676
4.08,281.908,48.9273,157.492,40.8842,-2.5456,-88.4694,178.74
4.1,281.09,48.9448,158.31,40.9186,1.72257,213.408,178.803
4.12,280.271,48.9615,159.129,40.9178,-0.0417408,-88.2156,178.866
4.14,279.453,48.9772,159.947,40.9024,-0.766372,-36.2316,178.928
4.16,278.636,48.992,160.764,40.8727,-1.48564,-35.9636,178.988
4.18,277.819,49.006,161.581,40.8576,-0.757047,36.4299,179.047
4.2,277.003,49.0192,162.397,40.8069,-2.53292,-88.7936,179.106
4.22,276.187,49.0315,163.214,40.813,0.303021,141.797,179.162
4.24,275.371,49.0431,164.03,40.798,-0.75105,-52.7035,179.217
4.26,274.555,49.0538,164.845,40.783,-0.74905,0.099966,179.271
4.28,273.74,49.0637,165.661,40.7681,-0.744004,0.252315,179.324
4.3,272.926,49.073,166.475,40.7244,-2.18608,-72.1037,179.374
4.32,272.112,49.0816,167.289,40.6951,-1.46274,36.1667,179.422
4.34,271.298,49.0894,168.103,40.6948,-0.0176085,72.2568,179.47
4.36,270.485,49.0966,168.916,40.6512,-2.17928,-108.084,179.515
4.38,269.673,49.1031,169.728,40.622,-1.45837,36.0456,179.558
4.4,268.86,49.1091,170.54,40.6074,-0.731412,36.3479,179.6
4.42,268.049,49.1145,171.352,40.5783,-1.45411,-36.1347,179.64
4.44,267.238,49.1192,172.163,40.5493,-1.45298,0.0562414,179.678
4.46,266.428,49.1235,172.973,40.5202,-1.45056,0.121095,179.714
4.48,265.618,49.1273,173.783,40.4913,-1.44861,0.0976518,179.748
4.5,264.809,49.1307,174.592,40.4623,-1.44915,-0.0273429,179.78
4.52,264,49.1335,175.401,40.4333,-1.44837,0.0390561,179.81
4.54,263.192,49.136,176.209,40.4044,-1.44609,0.114066,179.838
4.56,262.384,49.1381,177.017,40.3755,-1.44712,-0.0515679,179.864
4.58,261.577,49.1398,177.824,40.3466,-1.44534,0.0890691,179.888
4.6,260.771,49.1412,178.63,40.3032,-2.16686,-36.0761,179.909
4.62,259.973,49.1423,179.428,39.9243,-18.9448,-838.895,179.928
4.64,259.197,49.1432,180.204,38.8099,-55.7224,-1838.88,179.946
4.66,258.459,49.1438,180.942,36.8877,-96.1097,-2019.37,179.959
4.68,257.804,49.1441,181.597,32.7588,-206.444,-5516.72,179.97
4.7,257.195,49.1444,182.206,30.4155,-117.165,4463.93,179.978
4.72,256.648,49.1446,182.753,27.3511,-153.222,-1802.83,179.985
4.74,256.172,49.1447,183.229,23.8077,-177.165,-1197.18,179.989
4.76,255.753,49.1447,183.648,20.9433,-143.222,1697.18,179.992
4.78,255.374,49.1447,184.027,18.9433,-100,2161.09,179.995
4.8,255.201,49.1448,184.2,8.66444,-513.944,-20697.2,179.996
4.82,255.027,49.1448,184.374,8.7,1.77813,25786.1,179.996
4.84,254.854,49.1448,184.547,8.66444,-1.7782,-177.816,179.997
4.86,254.681,49.1448,184.72,8.66444,6.90292e-10,88.9099,179.998
4.88,254.508,49.1448,184.893,8.65,-0.721803,-36.0901,179.998
