"time","x","y","position","velocity","acceleration","jerk","heading"
0,261.761,13.3,0,0,0,0,0
0.02,261.934,13.3,0.173089,8.65445,432.723,21636.1,0.000308397
0.04,262.108,13.3,0.347178,8.70445,2.5,-21511.1,0.000616793
0.06,262.281,13.3,0.520267,8.65445,-2.5,-250,0.00092519
0.08,262.454,13.3,0.693356,8.65445,2.16531e-06,125,0.00123359
0.1,262.627,13.3,0.866445,8.65445,-7.21812e-06,-0.000469171,0.00154198
0.12,262.857,13.3,1.09563,11.4594,140.245,7012.27,0.00219042
0.14,263.275,13.3,1.51415,20.9261,473.338,16654.6,0.0040001
0.16,263.694,13.3,1.93268,20.9261,-2.8372e-09,-23666.9,0.00580978
0.18,264.219,13.3001,2.45766,26.2491,266.146,13307.3,0.00920755
0.2,264.765,13.3002,3.00373,27.3036,52.7264,-10671,0.012919
0.22,265.413,13.3004,3.65245,32.4362,256.63,10195.2,0.0188886
0.24,266.102,13.3006,4.34052,34.4035,98.3662,-7913.19,0.0260583
0.26,266.844,13.301,5.0831,37.1287,136.261,1894.73,0.0349745
0.28,267.66,13.3016,5.89854,40.7721,182.169,2295.43,0.0468959
0.3,268.536,13.3024,6.77473,43.8094,151.863,-1515.34,0.0613974
0.32,269.471,13.3035,7.70971,46.7489,146.979,-244.194,0.0786394
0.34,270.467,13.3051,8.70559,49.7942,152.261,264.088,0.099011
0.36,271.522,13.3071,9.76051,52.746,147.594,-233.337,0.122974
0.38,272.638,13.3098,10.8767,55.8085,153.124,276.505,0.151261
0.4,273.814,13.3132,12.0531,58.8209,150.619,-125.23,0.183863
0.42,275.058,13.3176,13.297,62.1964,168.777,907.894,0.221688
0.44,276.361,13.3231,14.6004,65.1682,148.587,-1009.5,0.264471
0.46,277.723,13.3299,15.9624,68.1001,146.594,-99.6516,0.312906
0.48,279.15,13.3384,17.3893,71.3473,162.362,788.397,0.36805
0.5,280.638,13.3488,18.8771,74.3896,152.112,-512.496,0.429548
0.52,282.187,13.3612,20.426,77.4421,152.628,25.7979,0.498102
0.54,283.792,13.3762,22.031,80.249,140.342,-614.336,0.573988
0.56,285.414,13.3937,23.6538,81.1408,44.5927,-4787.44,0.656156
0.58,287.039,13.4135,25.2789,81.2584,5.87959,-1935.65,0.742915
0.6,288.666,13.4359,26.9056,81.3342,3.78895,-104.532,0.834811
0.62,290.293,13.4609,28.5327,81.3519,0.885639,-145.165,0.931266
0.64,291.922,13.4888,30.1621,81.4733,6.07015,259.226,1.03251
0.66,293.553,13.5197,31.793,81.5446,3.5636,-125.328,1.13851
0.68,295.184,13.5536,33.4251,81.6046,3.00015,-28.1723,1.24846
0.7,296.816,13.5908,35.0575,81.6195,0.74429,-112.793,1.36267
0.72,298.45,13.6313,36.692,81.724,5.22902,224.236,1.48039
0.74,300.084,13.6753,38.3265,81.7257,0.0815542,-257.373,1.60139
0.76,301.719,13.7228,39.9619,81.7727,2.35245,113.545,1.72531
0.78,303.355,13.7738,41.5991,81.8586,4.29233,96.9942,1.85136
0.8,304.991,13.8286,43.2359,81.8401,-0.923134,-260.773,1.97919
0.82,306.627,13.8869,44.873,81.8539,0.69193,80.7532,2.10756
0.84,308.263,13.9489,46.5102,81.8604,0.323515,-18.4208,2.23592
0.86,309.898,14.0146,48.1462,81.7996,-3.04207,-168.279,2.36304
0.88,311.533,14.0839,49.7827,81.8271,1.37502,220.855,2.48809
0.9,313.166,14.1567,51.4174,81.7318,-4.763,-306.901,2.60949
0.92,314.799,14.2327,53.0518,81.7194,-0.620521,207.124,2.72605
0.94,316.429,14.312,54.6835,81.5867,-6.63523,-300.735,2.83635
0.96,318.056,14.3941,56.3132,81.487,-4.98268,82.6274,2.93925
0.98,319.68,14.4789,57.9396,81.3194,-8.38146,-169.939,3.0335
1,321.302,14.566,59.5635,81.1948,-6.23141,107.503,3.1152
1.02,322.92,14.6552,61.1843,81.0405,-7.71233,-74.0463,3.18582
1.04,324.534,14.7459,62.8007,80.817,-11.1748,-173.123,3.24407
1.06,326.144,14.8378,64.4135,80.6401,-8.84767,116.357,3.28633
1.08,327.749,14.9305,66.0211,80.3794,-13.0353,-209.382,3.31379
1.1,329.35,15.0235,67.6242,80.1568,-11.1301,95.2612,3.32571
1.12,330.946,15.1163,69.2237,79.9733,-9.17569,97.7193,3.32144
1.14,332.538,15.2084,70.8174,79.6886,-14.2325,-252.84,3.30099
1.16,334.124,15.2996,72.4068,79.4688,-10.9927,161.989,3.26547
1.18,335.708,15.3892,73.9927,79.296,-8.63904,117.684,3.21476
1.2,337.286,15.4771,75.5731,79.0207,-13.7639,-256.243,3.14875
1.22,338.861,15.5628,77.1511,78.899,-6.08643,383.873,3.07123
1.24,340.434,15.6459,78.7256,78.7249,-8.70144,-130.751,2.9821
1.26,342.001,15.7263,80.2955,78.4952,-11.4891,-139.383,2.88098
1.28,343.569,15.8038,81.8651,78.4792,-0.798814,534.514,2.77234
1.3,345.134,15.878,83.4314,78.3157,-8.17479,-368.799,2.65637
1.32,346.697,15.9489,84.9959,78.2263,-4.4678,185.35,2.53474
1.34,348.259,16.0163,86.5601,78.2068,-0.978659,174.457,2.40883
1.36,349.82,16.0803,88.1222,78.1077,-4.95159,-198.647,2.28003
1.38,351.381,16.1406,89.6848,78.1261,0.917361,293.448,2.14955
1.4,352.943,16.1975,91.2469,78.1095,-0.828299,-87.283,2.01839
1.42,354.504,16.2507,92.8092,78.1117,0.107307,46.7803,1.88783
1.44,356.066,16.3004,94.3716,78.1196,0.396468,14.4581,1.75823
1.46,357.629,16.3466,95.9355,78.1984,3.94057,177.205,1.63101
1.48,359.192,16.3894,97.4992,78.1808,-0.878596,-240.958,1.50638
1.5,360.756,16.4289,99.0637,78.2272,2.31703,159.781,1.38527
1.52,362.322,16.4651,100.63,78.3254,4.91381,129.839,1.26779
1.54,363.889,16.4983,102.198,78.3808,2.768,-107.291,1.15439
1.56,365.457,16.5284,103.766,78.3939,0.657354,-105.532,1.04558
1.58,367.027,16.5555,105.336,78.5038,5.49026,241.645,0.941103
1.6,368.598,16.58,106.907,78.5755,3.58708,-95.159,0.841755
1.62,370.171,16.6017,108.48,78.6449,3.4694,-5.88393,0.747356
1.64,371.745,16.621,110.055,78.7199,3.74989,14.0245,0.658265
1.66,373.321,16.6379,111.631,78.7961,3.80925,2.96802,0.574547
1.68,374.898,16.6526,113.208,78.8653,3.46111,-17.4069,0.495704
1.7,376.476,16.6652,114.786,78.8954,1.50756,-97.6776,0.422476
1.72,378.056,16.676,116.366,79.0265,6.55303,252.274,0.354912
1.74,379.639,16.6849,117.948,79.1044,3.89346,-132.979,0.292783
1.76,381.222,16.6921,119.532,79.1845,4.00673,5.66368,0.236235
1.78,382.807,16.698,121.117,79.2595,3.75049,-12.8124,0.184903
1.8,384.394,16.7024,122.704,79.3554,4.79655,52.3034,0.140232
1.82,385.983,16.7058,124.293,79.4326,3.85991,-46.8322,0.100918
1.84,387.573,16.7081,125.883,79.513,4.01641,7.82504,0.0671752
1.86,389.166,16.7096,127.476,79.6146,5.08316,53.3375,0.040478
1.88,390.76,16.7104,129.069,79.6971,4.12536,-47.8899,0.0194979
1.9,392.355,16.7107,130.665,79.7914,4.71215,29.3394,0.0050467
1.92,393.953,16.7107,132.263,79.8958,5.21941,25.363,-0.00217333
1.94,395.553,16.7106,133.863,79.9956,4.99146,-11.3973,-0.0024781
1.96,397.157,16.7106,135.467,80.2077,10.6046,280.655,0.0119089
1.98,398.761,16.7113,137.071,80.2021,-0.28177,-544.316,0.025905
2,400.358,16.7119,138.668,79.8113,-19.5379,-962.808,0.012833
2.02,401.95,16.7119,140.259,79.5915,-10.9923,427.284,-0.0154675
2.04,403.539,16.711,141.849,79.4728,-5.93028,253.099,-0.0519848
2.06,405.129,16.709,143.438,79.476,0.155298,304.279,-0.0882904
2.08,406.72,16.7061,145.03,79.5992,6.16259,300.364,-0.116063
2.1,408.319,16.7026,146.629,79.924,16.2375,503.746,-0.121344
2.12,409.927,16.6993,148.236,80.3793,22.7679,326.521,-0.0950804
2.14,411.548,16.6973,149.857,81.0502,33.5448,538.844,-0.0223357
2.16,413.186,16.698,151.496,81.938,44.3874,542.129,0.111908
2.18,414.849,16.704,153.159,83.1248,59.3422,747.74,0.328331
2.2,416.547,16.718,154.857,84.9235,89.9352,1529.65,0.669199
2.22,418.279,16.7443,156.589,86.6155,84.6007,-266.725,1.12683
2.24,420.056,16.7879,158.367,88.8697,112.707,1405.31,1.73958
2.26,421.886,16.8553,160.198,91.5511,134.07,1068.15,2.53946
2.28,423.755,16.9529,162.07,93.594,102.147,-1596.14,3.48403
2.3,425.681,17.0888,164,96.5259,146.593,2222.28,4.62895
2.32,427.635,17.2678,165.963,98.1311,80.2641,-3316.44,5.88264
2.34,429.613,17.495,167.954,99.5367,70.28,-499.206,7.23792
2.36,431.594,17.7708,169.953,99.9874,22.5328,-2387.36,8.62149
2.38,433.561,18.0933,171.947,99.6662,-16.0574,-1929.51,9.98353
2.4,435.497,18.457,173.916,98.4833,-59.1449,-2154.38,11.2726
2.42,437.361,18.8491,175.821,95.2394,-162.2,-5152.73,12.4405
2.44,439.115,19.2532,177.622,90.0353,-260.203,-4900.17,13.449
2.46,440.77,19.6629,179.326,85.2042,-241.555,932.4,14.3271
2.48,442.313,20.0679,180.922,79.7866,-270.877,-1466.12,15.0449
2.5,443.769,20.4683,182.432,75.5064,-214.011,2843.32,15.6594
2.52,445.131,20.8572,183.848,70.8154,-234.551,-1027,16.1704
2.54,446.407,21.2325,185.178,66.4938,-216.078,923.641,16.5921
2.56,447.604,21.594,186.429,62.545,-197.443,931.761,16.9449
2.58,448.728,21.9398,187.605,58.8007,-187.215,511.392,17.2421
2.6,449.778,22.2682,188.705,55.0037,-189.847,-131.567,17.4849
2.62,450.755,22.5783,189.73,51.2619,-187.094,137.615,17.6819
2.64,451.666,22.8698,190.686,47.7884,-173.671,671.173,17.8428
2.66,452.509,23.1426,191.572,44.3035,-174.248,-28.8524,17.9739
2.68,453.292,23.3976,192.396,41.194,-155.473,938.724,18.0811
2.7,454.014,23.6336,193.155,37.9551,-161.946,-323.636,18.1667
2.72,454.655,23.8446,193.83,33.7648,-209.514,-2378.38,18.2304
2.74,455.252,24.0416,194.459,31.4194,-117.271,4612.13,18.2841
2.76,455.78,24.2164,195.015,27.7978,-181.082,-3190.54,18.3234
2.78,456.246,24.3709,195.506,24.5639,-161.693,969.455,18.3538
2.8,456.649,24.5046,195.93,21.2212,-167.134,-272.047,18.3751
2.82,457.027,24.6303,196.329,19.938,-64.164,5148.48,18.3948
2.84,457.193,24.6854,196.503,8.71757,-561.019,-24842.7,18.4
2.86,457.358,24.7406,196.678,8.7206,0.151215,28058.5,18.4053
2.88,457.525,24.7958,196.853,8.7666,2.3001,107.444,18.4105
2.9,457.69,24.851,197.028,8.7206,-2.3001,-230.01,18.4158
2.92,457.855,24.9062,197.202,8.72074,0.00698377,115.354,18.421
