"time","x","y","position","velocity","acceleration","jerk","heading"
0,425.468,26.4319,0,0,142.5,0,180
0.02,425.3,26.4319,0.168819,2.85,142.5,0,179.998
0.04,425.131,26.4319,0.337639,5.7,142.5,0,179.996
0.06,424.962,26.4319,0.506458,8.55,142.5,0,179.994
0.08,424.793,26.4319,0.675278,11.4,142.5,0,179.992
0.1,424.624,26.432,0.844097,14.25,142.5,0,179.99
0.12,424.437,26.432,1.03118,17.1,142.5,0,179.987
0.14,424.03,26.4321,1.43875,19.95,142.5,0,179.974
0.16,423.622,26.4323,1.84632,22.8,142.5,0,179.961
0.18,423.138,26.4327,2.33087,25.65,142.5,0,179.939
0.2,422.606,26.4333,2.86202,28.5,142.5,0,179.912
0.22,422.002,26.4344,3.46637,31.35,142.5,0,179.871
0.24,421.359,26.4361,4.10943,34.2,142.5,0,179.824
0.26,420.644,26.4386,4.82456,37.05,142.5,0,179.76
0.28,419.872,26.4424,5.59696,39.9,142.5,0,179.679
0.3,419.047,26.4476,6.42189,42.75,142.5,0,179.581
0.32,418.166,26.4548,7.30305,45.6,142.5,0,179.463
0.34,417.227,26.4647,8.2419,48.45,142.5,0,179.321
0.36,416.23,26.4779,9.23879,51.3,142.5,0,179.151
0.38,415.175,26.4952,10.2934,54.15,142.5,0,178.949
0.4,414.064,26.5178,11.4052,57,142.5,0,178.708
0.42,412.896,26.5467,12.5734,59.85,142.5,0,178.433
0.44,411.673,26.5833,13.797,62.7,142.5,0,178.115
0.46,410.393,26.6293,15.0777,65.55,142.5,0,177.749
0.48,409.052,26.6867,16.4197,68.4,142.5,0,177.326
0.5,407.659,26.7573,17.8147,71.25,142.5,0,176.854
0.52,406.208,26.8436,19.2685,74.1,142.5,0,176.319
0.54,404.701,26.948,20.7786,76.95,142.5,0,175.733
0.56,403.139,27.0732,22.3465,79.8,142.5,0,175.1
0.58,401.523,27.2212,23.9688,82.65,142.5,0,174.437
0.6,399.851,27.3941,25.65,85.1184,32.4187,0,173.77
0.62,398.154,27.5891,27.3578,85.5,0,0,173.145
0.64,396.457,27.8017,29.0678,85.5,0,0,172.612
0.66,394.763,28.0283,30.7778,85.5,0,0,172.199
0.68,393.069,28.2649,32.4878,85.5,0,0,171.952
0.7,391.376,28.5068,34.1978,85.5,0,0,171.848
0.72,389.683,28.7491,35.9078,85.5,0,0,171.912
0.74,387.99,28.9872,37.6178,85.5,0,0,172.127
0.76,386.296,29.2173,39.3278,85.5,0,0,172.45
0.78,384.6,29.4361,41.0378,85.5,0,0,172.877
0.8,382.902,29.641,42.7478,85.5,0,0,173.38
0.82,381.203,29.8303,44.4578,85.5,0,0,173.929
0.84,379.501,30.0026,46.1678,85.5,0,0,174.512
0.86,377.798,30.1572,47.8778,85.5,0,0,175.119
0.88,376.094,30.2935,49.5878,85.5,0,0,175.739
0.9,374.388,30.4113,51.2978,85.5,0,0,176.365
0.92,372.681,30.5104,53.0078,85.5,0,0,176.995
0.94,370.973,30.5906,54.7178,85.5,0,0,177.629
0.96,369.264,30.6518,56.4278,85.5,0,0,178.268
0.98,367.554,30.6939,58.1378,85.5,0,0,178.881
1,365.844,30.7238,59.8478,85.5,0,0,179.061
1.02,364.135,30.75,61.5578,85.5,0,0,179.176
1.04,362.425,30.773,63.2678,85.5,0,0,179.281
1.06,360.715,30.7931,64.9778,85.5,0,0,179.375
1.08,359.005,30.8104,66.6878,85.5,0,0,179.46
1.1,357.295,30.8253,68.3978,85.5,0,0,179.536
1.12,355.585,30.8381,70.1078,85.5,0,0,179.605
1.14,353.875,30.849,71.8178,85.5,0,0,179.665
1.16,352.165,30.8581,73.5278,85.5,0,0,179.719
1.18,350.455,30.8658,75.2378,85.5,0,0,179.766
1.2,348.745,30.8721,76.9478,85.5,0,0,179.807
1.22,347.035,30.8774,78.6578,85.5,0,0,179.841
1.24,345.325,30.8817,80.3678,85.5,0,0,179.869
1.26,343.615,30.8852,82.0778,85.5,0,0,179.891
1.28,341.905,30.8882,83.7878,85.5,0,0,179.908
1.3,340.195,30.8908,85.4978,85.5,0,0,179.918
1.32,338.485,30.8931,87.2078,85.5,0,0,179.923
1.34,336.775,30.8954,88.9178,85.5,0,0,179.922
1.36,335.065,30.8978,90.6278,85.5,0,0,179.916
1.38,333.355,30.9004,92.3378,85.5,0,0,179.904
1.4,331.645,30.9035,94.0478,85.5,0,0,179.887
1.42,329.935,30.9072,95.7578,85.5,0,0,179.864
1.44,328.225,30.9116,97.4678,85.5,0,0,179.837
1.46,326.515,30.9169,99.1778,85.5,0,0,179.805
1.48,324.805,30.9233,100.888,85.5,0,0,179.767
1.5,323.095,30.9308,102.598,85.5,0,0,179.726
1.52,321.385,30.9397,104.308,85.5,0,0,179.68
1.54,319.675,30.9499,106.018,85.5,0,0,179.631
1.56,317.965,30.9617,107.728,85.5,0,0,179.579
1.58,316.255,30.975,109.438,85.5,0,0,179.525
1.6,314.545,30.99,111.148,85.5,0,0,179.469
1.62,312.836,31.0067,112.858,85.5,0,0,179.413
1.64,311.126,31.0251,114.568,85.5,0,0,179.357
1.66,309.416,31.0451,116.278,85.5,0,0,179.304
1.68,307.706,31.0667,117.988,85.5,0,0,179.252
1.7,305.996,31.0897,119.698,85.5,0,0,179.205
1.72,304.286,31.1141,121.408,85.5,0,0,179.163
1.74,302.576,31.1396,123.118,85.5,0,0,179.127
1.76,300.867,31.1661,124.828,85.5,0,0,179.098
1.78,299.157,31.1935,126.538,85.5,0,0,179.076
1.8,297.447,31.2213,128.248,85.5,0,0,179.061
1.82,295.737,31.2495,129.958,85.5,0,0,179.054
1.84,294.028,31.2778,131.668,85.5,0,0,179.055
1.86,292.318,31.3059,133.378,85.5,0,0,179.063
1.88,290.608,31.3337,135.087,85.4563,-51.3638,0,179.078
1.9,288.914,31.3607,136.782,83.6753,-142.5,0,179.099
1.92,287.27,31.3862,138.426,80.8253,-142.5,0,179.124
1.94,285.68,31.4102,140.017,77.9753,-142.5,0,179.152
1.96,284.152,31.4324,141.545,75.1253,-142.5,0,179.183
1.98,282.675,31.453,143.022,72.2753,-142.5,0,179.216
2,281.261,31.472,144.435,69.4253,-142.5,0,179.249
2.02,279.9,31.4894,145.796,66.5753,-142.5,0,179.282
2.04,278.597,31.5054,147.1,63.7253,-142.5,0,179.315
2.06,277.353,31.5199,148.344,60.8753,-142.5,0,179.346
2.08,276.165,31.5332,149.532,58.0253,-142.5,0,179.377
2.1,275.033,31.5452,150.664,55.1753,-142.5,0,179.407
2.12,273.958,31.5561,151.739,52.3253,-142.5,0,179.435
2.14,272.94,31.5659,152.757,49.4753,-142.5,0,179.462
2.16,271.981,31.5747,153.717,46.6253,-142.5,0,179.486
2.18,271.079,31.5826,154.618,43.7753,-142.5,0,179.51
2.2,270.234,31.5896,155.463,40.9253,-142.5,0,179.531
2.22,269.443,31.596,156.254,38.0753,-142.5,0,179.551
2.24,268.701,31.6017,156.997,35.2253,-142.5,0,179.57
2.26,268.039,31.6065,157.658,32.3753,-142.5,0,179.586
2.28,267.423,31.6109,158.275,29.5253,-142.5,0,179.602
2.3,266.855,31.6148,158.842,26.6753,-142.5,0,179.615
2.32,266.369,31.618,159.329,23.8253,-142.5,0,179.627
2.34,265.914,31.6209,159.784,20.9753,-142.5,0,179.638
2.36,265.542,31.6232,160.155,18.1253,-120.341,0,179.647
2.38,265.246,31.625,160.452,15.2753,-78.1309,0,179.653
2.4,264.95,31.6268,160.748,12.4253,-35.9204,0,179.66
2.42,264.668,31.6285,161.03,10,0,0,179.667
2.44,264.468,31.6296,161.23,10,0,0,179.671
2.46,264.268,31.6308,161.43,10,0,0,179.676
2.48,264.068,31.6319,161.63,10,0,0,179.681
2.5,263.868,31.633,161.83,10,0,0,179.685
2.52,263.668,31.6341,162.03,10,0,0,179.69
2.54,263.468,31.6352,162.23,10,0,0,179.694
2.56,263.268,31.6362,162.43,10,0,0,179.698
2.58,263.068,31.6373,162.63,10,0,0,179.703
2.6,262.868,31.6383,162.83,10,0,0,179.707
2.62,262.668,31.6393,163.03,10,0,0,179.712
2.64,262.468,31.6403,163.23,10,0,0,179.716
2.66,262.268,31.6413,163.43,10,0,0,179.72
2.68,262.068,31.6422,163.63,10,0,0,179.725
2.7,261.868,31.6432,163.83,10,0,0,179.729
2.72,261.668,31.6441,164.03,10,0,0,179.733
2.74,261.468,31.6451,164.23,10,0,0,179.737
2.76,261.268,31.646,164.43,10,0,0,179.742
2.78,261.068,31.6469,164.63,10,0,0,179.746
2.8,260.868,31.6477,164.83,10,0,0,179.75
2.82,260.668,31.6486,165.03,10,0,0,179.754
2.84,260.468,31.6495,165.23,10,0,0,179.758
2.86,260.268,31.6503,165.43,10,0,0,179.762
2.88,260.068,31.6511,165.63,10,0,0,179.766
2.9,259.868,31.6519,165.83,10,0,0,179.77
2.92,259.668,31.6527,166.03,10,0,0,179.774
2.94,259.468,31.6535,166.23,10,0,0,179.778
2.96,259.268,31.6543,166.43,10,0,0,179.782
2.98,259.068,31.655,166.63,10,0,0,179.786
3,258.868,31.6558,166.83,10,0,0,179.79
3.02,258.668,31.6565,167.03,10,0,0,179.794
3.04,258.468,31.6572,167.23,10,0,0,179.797
3.06,258.268,31.6579,167.43,10,0,0,179.801
3.08,258.068,31.6586,167.63,10,0,0,179.805
3.1,257.868,31.6593,167.83,10,0,0,179.809
3.12,257.668,31.6599,168.03,10,0,0,179.812
3.14,257.468,31.6606,168.23,10,0,0,179.816
3.16,257.268,31.6612,168.43,10,0,0,179.82
3.18,257.068,31.6618,168.63,10,0,0,179.823
3.2,256.868,31.6624,168.83,10,0,0,179.827
3.22,256.668,31.663,169.03,10,0,0,179.83
3.24,256.468,31.6636,169.23,10,0,0,179.834
3.26,256.268,31.6642,169.43,10,0,0,179.837
3.28,256.068,31.6648,169.63,10,0,0,179.841
3.3,255.868,31.6653,169.83,10,0,0,179.844
3.32,255.668,31.6659,170.03,10,0,0,179.848
3.34,255.468,31.6664,170.23,10,0,0,179.851
3.36,255.268,31.6669,170.43,10,0,0,179.854
3.38,255.068,31.6674,170.63,10,0,0,179.857
3.4,254.868,31.6679,170.83,10,0,0,179.861
3.42,254.668,31.6684,171.03,10,0,0,179.864
3.44,254.468,31.6688,171.23,10,0,0,179.867
3.46,254.268,31.6693,171.43,10,0,0,179.87
3.48,254.068,31.6697,171.63,10,0,0,179.873
3.5,253.868,31.6702,171.83,10,0,0,179.876
3.52,253.668,31.6706,172.03,10,0,0,179.88
3.54,253.468,31.671,172.23,10,0,0,179.883
3.56,253.268,31.6714,172.43,10,0,0,179.885
3.58,253.068,31.6718,172.63,10,0,0,179.888
3.6,252.868,31.6722,172.83,10,0,0,179.891
3.62,252.668,31.6726,173.03,10,0,0,179.894
3.64,252.468,31.6729,173.23,10,0,0,179.897
3.66,252.268,31.6733,173.43,10,0,0,179.9
3.68,252.068,31.6736,173.63,10,0,0,179.903
3.7,251.868,31.674,173.83,10,0,0,179.906
3.72,251.668,31.6743,174.03,10,0,0,179.908
3.74,251.468,31.6746,174.23,10,0,0,179.911
3.76,251.268,31.6749,174.43,10,0,0,179.914
3.78,251.068,31.6752,174.63,10,0,0,179.916
3.8,250.868,31.6755,174.83,10,0,0,179.919
3.82,250.668,31.6758,175.03,10,0,0,179.921
3.84,250.468,31.676,175.23,10,0,0,179.924
3.86,250.268,31.6763,175.43,10,0,0,179.926
3.88,250.068,31.6766,175.63,10,0,0,179.929
3.9,249.868,31.6768,175.83,10,0,0,179.931
3.92,249.668,31.677,176.03,10,0,0,179.934
3.94,249.468,31.6773,176.23,10,0,0,179.936
3.96,249.268,31.6775,176.43,10,0,0,179.938
3.98,249.068,31.6777,176.63,10,0,0,179.94
4,248.868,31.6779,176.83,10,0,0,179.943
4.02,248.668,31.6781,177.03,10,0,0,179.945
4.04,248.468,31.6783,177.23,10,0,0,179.947
4.06,248.268,31.6785,177.43,10,0,0,179.949
4.08,248.068,31.6786,177.63,10,0,0,179.951
4.1,247.868,31.6788,177.83,10,0,0,179.953
4.12,247.668,31.679,178.03,10,0,0,179.955
4.14,247.468,31.6791,178.23,10,0,0,179.957
4.16,247.268,31.6793,178.43,10,0,0,179.959
4.18,247.068,31.6794,178.63,10,0,0,179.961
4.2,246.868,31.6795,178.83,10,0,0,179.963
4.22,246.668,31.6797,179.03,10,0,0,179.964
4.24,246.468,31.6798,179.23,10,0,0,179.966
4.26,246.268,31.6799,179.43,10,0,0,179.968
4.28,246.068,31.68,179.63,10,0,0,179.969
4.3,245.868,31.6801,179.83,10,0,0,179.971
4.32,245.668,31.6802,180.03,10,0,0,179.973
4.34,245.468,31.6803,180.23,10,0,0,179.974
4.36,245.268,31.6804,180.43,10,0,0,179.976
4.38,245.068,31.6805,180.63,10,0,0,179.977
4.4,244.868,31.6805,180.83,10,0,0,179.979
4.42,244.668,31.6806,181.03,10,0,0,179.98
4.44,244.468,31.6807,181.23,10,0,0,179.981
4.46,244.268,31.6807,181.43,10,0,0,179.983
4.48,244.068,31.6808,181.63,10,0,0,179.984
4.5,243.868,31.6809,181.83,10,0,0,179.985
4.52,243.668,31.6809,182.03,10,0,0,179.986
4.54,243.468,31.681,182.23,10,0,0,179.987
4.56,243.268,31.681,182.43,10,0,0,179.988
4.58,243.068,31.681,182.63,10,0,0,179.989
4.6,242.868,31.6811,182.83,10,0,0,179.99
4.62,242.668,31.6811,183.03,10,0,0,179.991
4.64,242.468,31.6811,183.23,10,0,0,179.992
4.66,242.268,31.6812,183.43,10,0,0,179.993
4.68,242.068,31.6812,183.63,10,0,0,179.994
4.7,241.868,31.6812,183.83,10,0,0,179.995
4.72,241.668,31.6812,184.03,10,-1.49019,0,179.995
4.74,241.468,31.6812,184.23,10,-11.4902,0,179.996
4.76,241.268,31.6812,184.43,10,-21.4902,0,179.996
4.78,241.068,31.6813,184.63,10,-31.4902,0,179.997
4.8,240.868,31.6813,184.83,10,-41.4902,0,179.997
4.82,240.683,31.6813,185.015,9.85098,-50,0,179.998
4.84,240.583,31.6813,185.115,8.85098,-50,0,179.998
4.86,240.483,31.6813,185.215,7.85098,-50,0,179.998
4.88,240.383,31.6813,185.315,6.85098,-50,0,179.998
4.9,240.283,31.6813,185.415,5.85098,-50,0,179.999
4.92,240.183,31.6813,185.515,4.85098,-50,0,179.999
4.94,240.083,31.6813,185.615,3.85098,-50,0,179.999
4.96,239.983,31.6813,185.715,2.85098,-50,0,179.999
4.98,239.883,31.6813,185.815,1.85098,-50,0,179.999
5,239.783,31.6813,185.915,0.850981,-50,0,179.999
