"time","x","y","position","velocity","acceleration","jerk","heading"
0,514.143,300.543,0,0,0,0,-180
0.02,513.968,300.543,0.17494,8.747,437.35,21867.5,-179.991
0.04,513.793,300.543,0.34988,8.747,-1.18044e-07,-21867.5,-179.982
0.06,513.618,300.543,0.524604,8.73622,-0.538871,-26.9435,-179.974
0.08,513.442,300.543,0.700544,8.797,3.03887,178.887,-179.965
0.1,513.268,300.543,0.875484,8.747,-2.5,-276.944,-179.956
0.12,513.035,300.543,1.10758,11.6048,142.889,7269.44,-179.937
0.14,512.605,300.542,1.53822,21.532,496.363,17673.7,-179.883
0.16,512.175,300.541,1.96808,21.4928,-1.96111,-24916.2,-179.828
0.18,511.629,300.539,2.51428,27.3103,290.872,14641.7,-179.725
0.2,511.06,300.536,3.08343,28.4575,57.3609,-11675.6,-179.613
0.22,510.374,300.53,3.76868,34.2625,290.249,11644.4,-179.431
0.24,509.642,300.523,4.50127,36.6297,118.362,-8594.31,-179.215
0.26,508.844,300.51,5.29949,39.9109,164.058,2284.8,-178.95
0.28,507.959,300.491,6.18439,44.2448,216.695,2631.85,-178.608
0.3,506.995,300.464,7.14857,48.2091,198.215,-924.009,-178.182
0.32,505.955,300.427,8.18908,52.0257,190.832,-369.148,-177.672
0.34,504.838,300.376,9.30765,55.9284,195.134,215.093,-177.071
0.36,503.64,300.308,10.5072,59.9772,202.439,365.253,-176.371
0.38,502.362,300.218,11.7887,64.074,204.84,120.06,-175.565
0.4,501.001,300.102,13.1542,68.2754,210.071,261.522,-174.645
0.42,499.588,299.956,14.5755,71.0668,139.568,-3525.12,-173.615
0.44,498.159,299.784,16.0144,71.9422,43.7696,-4789.94,-172.51
0.46,496.722,299.579,17.4656,72.5643,31.1045,-633.258,-171.344
0.48,495.279,299.344,18.9285,73.1403,28.8028,-115.082,-170.123
0.5,493.829,299.076,20.4026,73.707,28.3339,-23.4482,-168.851
0.52,492.375,298.772,21.8882,74.282,28.7483,20.7202,-167.528
0.54,490.921,298.432,23.3813,74.6525,18.527,-511.064,-166.166
0.56,489.468,298.055,24.8825,75.0625,20.4996,98.6302,-164.77
0.58,488.02,297.642,26.3882,75.2811,10.9293,-478.513,-163.352
0.6,486.579,297.192,27.8973,75.4591,8.89886,-101.523,-161.916
0.62,485.148,296.704,29.4091,75.5892,6.50922,-119.482,-160.47
0.64,483.729,296.181,30.9217,75.6289,1.98444,-226.239,-159.02
0.66,482.325,295.622,32.4328,75.5556,-3.66817,-282.631,-157.573
0.68,480.937,295.028,33.943,75.5093,-2.31437,67.6901,-156.137
0.7,479.567,294.402,35.449,75.2993,-10.4966,-409.114,-154.716
0.72,478.217,293.744,36.9507,75.0855,-10.69,-9.66867,-153.318
0.74,476.889,293.057,38.4459,74.7625,-16.1525,-273.122,-151.944
0.76,475.583,292.341,39.9359,74.4991,-13.1673,149.257,-150.602
0.78,474.301,291.599,41.4173,74.0683,-21.5421,-418.737,-149.294
0.8,473.041,290.831,42.8922,73.7454,-16.1457,269.817,-148.021
0.82,471.807,290.042,44.3575,73.2658,-23.9806,-391.745,-146.789
0.84,470.596,289.231,45.8148,72.8621,-20.1855,189.754,-145.596
0.86,469.411,288.401,47.2616,72.3431,-25.9506,-288.252,-144.45
0.88,468.249,287.553,48.7001,71.9243,-20.9373,250.666,-143.344
0.9,467.11,286.689,50.1297,71.4794,-22.2454,-65.404,-142.278
0.92,465.994,285.81,51.5499,71.0091,-23.5167,-63.5692,-141.259
0.94,464.904,284.919,52.9584,70.4249,-29.209,-284.615,-140.29
0.96,463.834,284.016,54.3586,70.0114,-20.6758,426.663,-139.361
0.98,462.785,283.1,55.7505,69.5971,-20.714,-1.91065,-138.47
1,461.757,282.176,57.1329,69.1156,-24.0761,-168.107,-137.622
1.02,460.75,281.244,58.505,68.6083,-25.3614,-64.2618,-136.824
1.04,459.761,280.304,59.8696,68.2296,-18.9375,321.192,-136.062
1.06,458.791,279.356,61.2259,67.8153,-20.7128,-88.7655,-135.337
1.08,457.838,278.404,62.5731,67.3589,-22.8195,-105.335,-134.654
1.1,456.902,277.445,63.9126,66.9755,-19.1698,182.484,-134.007
1.12,455.982,276.483,65.2436,66.5519,-21.1828,-100.65,-133.397
1.14,455.078,275.516,66.5674,66.1857,-18.3086,143.71,-132.826
1.16,454.189,274.547,67.8826,65.7595,-21.3099,-150.064,-132.29
1.18,453.312,273.575,69.192,65.4703,-14.4603,342.48,-131.783
1.2,452.449,272.601,70.4933,65.0658,-20.2265,-288.311,-131.313
1.22,451.599,271.626,71.7866,64.666,-19.9913,11.7635,-130.88
1.24,450.76,270.649,73.0739,64.3678,-14.9087,254.127,-130.474
1.26,449.932,269.673,74.3539,63.9967,-18.5538,-182.255,-130.102
1.28,449.115,268.696,75.6276,63.6881,-15.4315,156.118,-129.762
1.3,448.307,267.72,76.8949,63.3633,-16.2397,-40.4097,-129.448
1.32,447.509,266.745,78.1549,62.9987,-18.2297,-99.5022,-129.171
1.34,446.72,265.772,79.408,62.6546,-17.2059,51.1902,-128.925
1.36,445.938,264.8,80.6551,62.3546,-14.9984,110.373,-128.706
1.38,445.164,263.83,81.8959,62.0438,-15.5426,-27.2066,-128.518
1.4,444.397,262.864,83.1296,61.6837,-18.0031,-123.026,-128.362
1.42,443.638,261.901,84.3563,61.3349,-17.4373,28.2874,-128.237
1.44,442.883,260.942,85.5763,60.9984,-16.8271,30.5112,-128.144
1.46,442.135,259.988,86.7887,60.6188,-18.9785,-107.569,-128.087
1.48,441.392,259.038,87.9948,60.3055,-15.6653,165.662,-128.057
1.5,440.652,258.094,89.1944,59.9807,-16.242,-28.839,-128.06
1.52,439.918,257.158,90.3835,59.4563,-26.2171,-498.753,-128.108
1.54,439.188,256.227,91.5661,59.1316,-16.2397,498.868,-128.189
1.56,438.461,255.304,92.7419,58.7876,-17.1958,-47.8056,-128.304
1.58,437.737,254.39,93.9076,58.2862,-25.0739,-393.902,-128.464
1.6,437.016,253.486,95.0638,57.8094,-23.8388,61.7539,-128.666
1.62,436.312,252.61,96.1877,56.1933,-80.8034,-2848.23,-128.91
1.64,435.641,251.782,97.2532,53.2754,-145.894,-3254.51,-129.185
1.66,435.008,251.009,98.252,49.9394,-166.802,-1045.44,-129.493
1.68,434.412,250.289,99.187,46.7514,-159.4,370.135,-129.824
1.7,433.852,249.622,100.058,43.5701,-159.065,16.7618,-130.171
1.72,433.327,249.004,100.869,40.5317,-151.921,357.176,-130.531
1.74,432.835,248.432,101.623,37.7173,-140.721,560.019,-130.9
1.76,432.365,247.893,102.338,35.7518,-98.2715,2122.46,-131.295
1.78,431.897,247.364,103.044,35.3025,-22.4672,3790.22,-131.73
1.8,431.43,246.845,103.744,34.9532,-17.4636,250.178,-132.199
1.82,430.965,246.334,104.434,34.5297,-21.1765,-185.644,-132.706
1.84,430.499,245.835,105.116,34.1154,-20.7127,23.1902,-133.253
1.86,430.037,245.349,105.787,33.5336,-29.091,-418.916,-133.853
1.88,429.578,244.876,106.446,32.9646,-28.4521,31.9486,-134.505
1.9,429.121,244.416,107.095,32.4106,-27.7008,37.5622,-135.208
1.92,428.667,243.97,107.732,31.8546,-27.798,-4.85658,-135.966
1.94,428.215,243.539,108.355,31.1824,-33.6082,-290.511,-136.784
1.96,427.771,243.128,108.961,30.2715,-45.5486,-597.023,-137.685
1.98,427.332,242.735,109.55,29.4499,-41.0785,223.509,-138.665
2,426.901,242.362,110.121,28.5406,-45.4637,-219.264,-139.727
2.02,426.479,242.011,110.669,27.4133,-56.365,-545.065,-140.893
2.04,426.07,241.685,111.192,26.1787,-61.7286,-268.18,-142.178
2.06,425.66,241.373,111.707,25.7534,-21.2684,2023.01,-143.5
2.08,425.276,241.096,112.181,23.669,-104.221,-4147.61,-145.016
2.1,424.903,240.841,112.632,22.577,-54.5991,2481.07,-146.631
2.12,424.543,240.609,113.061,21.4271,-57.4927,-144.679,-148.357
2.14,424.207,240.409,113.452,19.5328,-94.7177,-1861.25,-150.254
2.16,423.898,240.238,113.805,17.6911,-92.0841,131.679,-152.323
2.18,423.608,240.092,114.13,16.2083,-74.138,897.307,-154.531
2.2,423.353,239.974,114.411,14.0576,-107.536,-1669.89,-156.937
2.22,423.126,239.882,114.655,12.2341,-91.1735,818.117,-159.516
2.24,422.918,239.809,114.876,11.051,-59.16,1600.68,-162.2
2.26,422.76,239.761,115.041,8.22283,-141.406,-4112.31,-165.147
2.28,422.626,239.729,115.179,6.8968,-66.3012,3755.25,-168.222
2.3,422.512,239.707,115.296,5.83468,-53.106,659.761,-171.392
2.32,422.415,239.694,115.393,4.85025,-49.2218,194.213,-174.654
2.34,422.339,239.69,115.469,3.80682,-52.1711,-147.47,-178.011
2.36,422.262,239.689,115.546,3.85827,2.57235,2737.17,178.635
2.38,422.186,239.693,115.623,3.83455,-1.18605,-187.92,175.283
2.4,422.09,239.704,115.719,4.8149,49.0175,2510.18,172.018
2.42,421.972,239.725,115.838,5.97359,57.9345,445.851,168.859
2.44,421.837,239.757,115.978,6.96307,49.4741,-423.021,165.794
2.46,421.673,239.804,116.148,8.5116,77.4262,1397.61,162.872
2.48,421.464,239.875,116.369,11.0366,126.25,2441.18,160.187
2.5,421.232,239.967,116.618,12.4748,71.9095,-2717.01,157.631
2.52,420.976,240.08,116.898,14.0172,77.12,260.523,155.219
2.54,420.683,240.223,117.224,16.2636,112.32,1760,153.018
2.56,420.365,240.394,117.585,18.0536,89.5005,-1140.98,150.984
2.58,420.025,240.591,117.978,19.6645,80.5441,-447.817,149.094
2.6,419.663,240.817,118.405,21.3285,83.2002,132.805,147.364
2.62,419.284,241.069,118.86,22.7754,72.3475,-542.639,145.765
2.64,418.897,241.341,119.333,23.6492,43.6861,-1433.07,144.246
2.66,418.48,241.651,119.853,25.9797,116.528,3642.09,142.945
2.68,418.063,241.974,120.38,26.3753,19.7769,-4837.55,141.685
2.7,417.635,242.32,120.93,27.5016,56.3193,1827.12,140.522
2.72,417.197,242.688,121.502,28.612,55.5187,-40.0283,139.466
2.74,416.752,243.076,122.093,29.5436,46.5819,-446.843,138.498
2.76,416.297,243.486,122.705,30.5992,52.7788,309.847,137.625
2.78,415.836,243.912,123.333,31.3831,39.1961,-679.137,136.824
2.8,415.372,244.354,123.974,32.0356,32.6217,-328.72,136.085
2.82,414.905,244.81,124.627,32.6717,31.807,-40.7329,135.406
2.84,414.433,245.28,125.293,33.2972,31.2757,-26.5668,134.782
2.86,413.957,245.766,125.972,33.9642,33.35,103.713,134.223
2.88,413.477,246.263,126.663,34.5536,29.4674,-194.127,133.715
2.9,412.996,246.77,127.363,34.9865,21.6438,-391.18,133.253
2.92,412.512,247.289,128.073,35.4842,24.8846,162.041,132.833
2.94,412.025,247.818,128.792,35.9475,23.1697,-85.746,132.455
2.96,411.533,248.359,129.522,36.5221,28.73,278.014,132.136
2.98,411.038,248.909,130.262,37.0117,24.4774,-212.629,131.858
3,410.541,249.467,131.01,37.3849,18.6614,-290.799,131.617
3.02,410.04,250.034,131.767,37.8295,22.2301,178.434,131.413
3.04,409.536,250.607,132.53,38.1622,16.6315,-279.932,131.246
3.06,409.026,251.19,133.304,38.7162,27.7007,553.463,131.123
3.08,408.517,251.774,134.079,38.7264,0.511211,-1359.48,131.004
3.1,408.034,252.333,134.818,36.9576,-88.4391,-4447.52,130.723
3.12,407.568,252.878,135.535,35.8635,-54.7064,1686.63,130.339
3.14,407.096,253.438,136.267,36.5979,36.7212,4571.38,130.024
3.16,406.617,254.012,137.015,37.3862,39.417,134.792,129.781
3.18,406.126,254.602,137.782,38.3737,49.3738,497.838,129.632
3.2,405.629,255.205,138.564,39.0552,34.0727,-765.055,129.545
3.22,405.126,255.817,139.356,39.6111,27.7949,-313.893,129.506
3.24,404.616,256.435,140.157,40.079,23.3978,-219.853,129.514
3.26,404.094,257.067,140.977,40.9628,44.1874,1039.48,129.604
3.28,403.563,257.707,141.808,41.57,30.3598,-691.38,129.748
3.3,403.026,258.352,142.648,41.9993,21.4647,-444.753,129.936
3.32,402.48,259.003,143.498,42.4777,23.9219,122.862,130.166
3.34,401.924,259.658,144.356,42.9447,23.3496,-28.6151,130.438
3.36,401.356,260.321,145.229,43.6448,35.0028,582.66,130.776
3.38,400.778,260.986,146.11,44.0445,19.9883,-750.728,131.15
3.4,400.193,261.652,146.997,44.3428,14.9147,-253.677,131.553
3.42,399.599,262.316,147.888,44.5694,11.3312,-179.178,131.979
3.44,398.998,262.98,148.784,44.7749,10.2751,-52.8039,132.422
3.46,398.39,263.641,149.682,44.9036,6.43058,-192.225,132.875
3.48,397.777,264.295,150.577,44.7719,-6.58354,-650.706,133.317
3.5,397.165,264.94,151.467,44.4834,-14.423,-391.971,133.733
3.52,396.554,265.574,152.348,44.0353,-22.4061,-399.156,134.108
3.54,395.948,266.195,153.215,43.371,-33.2134,-540.367,134.425
3.56,395.352,266.799,154.064,42.4374,-46.6827,-673.461,134.649
3.58,394.77,267.388,154.892,41.4023,-51.7533,-253.533,134.777
3.6,394.201,267.96,155.699,40.3319,-53.5204,-88.3545,134.809
3.62,393.647,268.516,156.484,39.2542,-53.887,-18.3304,134.741
3.64,393.11,269.06,157.248,38.1986,-52.778,55.4481,134.575
3.66,392.592,269.587,157.987,36.9738,-61.2401,-423.102,134.292
3.68,392.09,270.105,158.708,36.0577,-45.8073,771.64,133.927
3.7,391.601,270.616,159.416,35.3732,-34.225,579.115,133.498
3.72,391.123,271.123,160.112,34.8308,-27.1195,355.275,133.018
3.74,390.655,271.629,160.801,34.4358,-19.746,368.674,132.5
3.76,390.197,272.133,161.483,34.1019,-16.6972,152.441,131.953
3.78,389.744,272.642,162.164,34.049,-2.64734,702.492,131.399
3.8,389.296,273.154,162.845,34.0221,-1.34129,65.3025,130.847
3.82,388.852,273.674,163.528,34.193,8.5433,494.229,130.308
3.84,388.409,274.2,164.216,34.3778,9.23857,34.7638,129.787
3.86,387.967,274.736,164.91,34.7011,16.1675,346.445,129.296
3.88,387.527,275.28,165.611,35.0274,16.3146,7.35658,128.832
3.9,387.086,275.831,166.316,35.2786,12.5591,-187.777,128.395
3.92,386.646,276.392,167.03,35.6682,19.479,345.996,127.994
3.94,386.203,276.962,167.751,36.0765,20.4181,46.9533,127.635
3.96,385.766,277.533,168.47,35.9557,-6.04177,-1322.99,127.318
3.98,385.351,278.08,169.157,34.3182,-81.8748,-3791.65,127.045
4,384.961,278.599,169.806,32.4651,-92.6557,-539.05,126.82
4.02,384.597,279.087,170.415,30.444,-101.054,-419.914,126.645
4.04,384.281,279.514,170.946,26.5441,-194.997,-4697.17,126.521
4.06,383.975,279.929,171.462,25.8022,-37.0935,7895.2,126.407
4.08,383.735,280.254,171.865,20.188,-280.71,-12180.8,126.339
4.1,383.497,280.579,172.268,20.1476,-2.01868,13934.5,126.27
4.12,383.347,280.784,172.522,12.6867,-373.049,-18551.5,126.239
4.14,383.246,280.921,172.692,8.5127,-208.698,8217.54,126.229
4.16,383.145,281.059,172.864,8.57182,2.95606,10582.7,126.218
4.18,383.044,281.197,173.035,8.55306,-0.93797,-194.702,126.208
4.2,382.943,281.335,173.206,8.54228,-0.538871,19.9549,126.197
4.22,382.843,281.473,173.376,8.50192,-2.01809,-73.9607,126.186
