"time","x","y","position","velocity","acceleration","jerk","heading"
0,527.643,274.693,0,0,142.5,0,0
0.02,527.474,274.693,0.169,2.85,142.5,0,-179.991
0.04,527.306,274.693,0.337,5.7,142.5,0,-179.983
0.06,527.137,274.693,0.506,8.55,142.5,0,-179.974
0.08,526.968,274.693,0.675,11.4,142.5,0,-179.966
0.1,526.799,274.693,0.844,14.25,142.5,0,-179.957
0.12,526.612,274.693,1.031,17.1,142.5,0,-179.945
0.14,526.205,274.692,1.438,19.95,142.5,0,-179.892
0.16,525.797,274.692,1.846,22.8,142.5,0,-179.839
0.18,525.312,274.69,2.33101,25.65,142.5,0,-179.751
0.2,524.781,274.687,2.86201,28.5,142.5,0,-179.641
0.22,524.177,274.683,3.46603,31.35,142.5,0,-179.482
0.24,523.534,274.676,4.10907,34.2,142.5,0,-179.294
0.26,522.819,274.666,4.82414,37.05,142.5,0,-179.042
0.28,522.047,274.651,5.59628,39.9,142.5,0,-178.729
0.3,521.222,274.631,6.42152,42.75,142.5,0,-178.349
0.32,520.341,274.602,7.303,45.6,142.5,0,-177.889
0.34,519.403,274.563,8.24181,48.45,142.5,0,-177.343
0.36,518.408,274.512,9.23812,51.3,142.5,0,-176.705
0.38,517.355,274.445,10.2932,54.15,117.411,0,-175.966
0.4,516.252,274.359,11.3996,56.3946,34.2,0,-175.123
0.42,515.122,274.254,12.5345,57,0,0,-174.191
0.44,513.989,274.129,13.6743,57,0,0,-173.185
0.46,512.858,273.983,14.8147,57,0,0,-172.116
0.48,511.731,273.816,15.954,57,0,0,-170.993
0.5,510.607,273.626,17.094,57,0,0,-169.816
0.52,509.487,273.413,18.234,57,0,0,-168.594
0.54,508.372,273.175,19.3742,57,0,0,-167.332
0.56,507.263,272.913,20.5137,57,0,0,-166.033
0.58,506.16,272.625,21.6537,57,0,0,-164.706
0.6,505.063,272.312,22.7945,57,0,0,-163.358
0.62,503.975,271.972,23.9343,57,0,0,-161.995
0.64,502.895,271.607,25.0744,57,0,0,-160.621
0.66,501.825,271.216,26.2136,57,0,0,-159.243
0.68,500.764,270.799,27.3536,57,0,0,-157.868
0.7,499.713,270.357,28.4937,57,0,0,-156.502
0.72,498.673,269.89,29.6338,57,0,0,-155.148
0.74,497.644,269.399,30.7739,57,0,0,-153.812
0.76,496.627,268.884,31.9139,57,0,0,-152.495
0.78,495.622,268.346,33.0538,57,0,0,-151.205
0.8,494.629,267.786,34.1938,57,0,0,-149.949
0.82,493.649,267.204,35.3336,57,0,0,-148.724
0.84,492.681,266.602,36.4735,57,0,0,-147.531
0.86,491.725,265.98,37.6141,57,0,0,-146.372
0.88,490.782,265.34,38.7537,57,0,0,-145.252
0.9,489.852,264.681,39.8936,57,0,0,-144.173
0.92,488.934,264.005,41.0336,57,0,0,-143.131
0.94,488.028,263.313,42.1736,57,0,0,-142.129
0.96,487.134,262.605,43.314,57,0,0,-141.166
0.98,486.252,261.883,44.4539,57,0,0,-140.247
1,485.381,261.147,45.5942,57,0,0,-139.365
1.02,484.522,260.398,46.7339,57,0,0,-138.518
1.04,483.673,259.637,47.874,57,0,0,-137.71
1.06,482.835,258.864,49.0141,57,0,0,-136.944
1.08,482.007,258.081,50.1537,57,0,0,-136.214
1.1,481.189,257.287,51.2937,57,0,0,-135.517
1.12,480.381,256.483,52.4335,57,0,0,-134.858
1.14,479.581,255.671,53.5734,57,0,0,-134.235
1.16,478.79,254.85,54.7135,57,0,0,-133.64
1.18,478.008,254.021,55.8531,57,0,0,-133.08
1.2,477.233,253.184,56.9938,57,0,0,-132.554
1.22,476.466,252.341,58.1335,57,0,0,-132.06
1.24,475.706,251.491,59.2737,57,0,0,-131.593
1.26,474.952,250.636,60.4137,57,0,0,-131.162
1.28,474.205,249.775,61.5536,57,0,0,-130.757
1.3,473.464,248.909,62.6933,57,0,0,-130.378
1.32,472.728,248.038,63.8337,57,0,0,-130.032
1.34,471.997,247.163,64.9738,57,0,0,-129.714
1.36,471.271,246.284,66.1139,57,0,0,-129.421
1.38,470.549,245.402,67.2537,57,0,0,-129.159
1.4,469.831,244.516,68.3941,57,0,0,-128.927
1.42,469.117,243.628,69.5336,57,0,0,-128.717
1.44,468.405,242.737,70.6741,57,0,0,-128.537
1.46,467.696,241.845,71.8136,57,0,0,-128.386
1.48,466.99,240.95,72.9535,57,0,0,-128.26
1.5,466.285,240.054,74.0936,57,0,0,-128.162
1.52,465.581,239.158,75.2331,57,0,0,-128.1
1.54,464.878,238.26,76.3735,57,0,0,-128.065
1.56,464.175,237.362,77.514,57,0,0,-128.057
1.58,463.472,236.465,78.6536,57,0,0,-128.084
1.6,462.769,235.568,79.7933,57,0,0,-128.143
1.62,462.064,234.672,80.9334,57,0,0,-128.233
1.64,461.358,233.777,82.0733,57,0,0,-128.359
1.66,460.649,232.884,83.2136,57,0,0,-128.531
1.68,459.938,231.993,84.3535,57,39.72,0,-128.738
1.7,459.228,231.112,85.485,56.0281,126.822,0,-128.982
1.72,458.537,230.263,86.5796,53.458,142.5,0,-129.262
1.74,457.877,229.459,87.6198,50.608,142.5,0,-129.573
1.76,457.249,228.703,88.6026,47.758,142.5,0,-129.905
1.78,456.653,227.995,89.5281,44.908,142.5,0,-130.254
1.8,456.09,227.334,90.3964,42.058,85.8372,0,-130.615
1.82,455.551,226.709,91.2217,40,0,0,-130.989
1.84,455.025,226.107,92.0211,40,0,0,-131.386
1.86,454.494,225.509,92.8208,40,0,0,-131.83
1.88,453.958,224.915,93.6209,40,0,0,-132.311
1.9,453.417,224.325,94.4214,40,0,0,-132.829
1.92,452.87,223.741,95.2216,40,0,0,-133.389
1.94,452.318,223.163,96.0208,40,0,0,-133.991
1.96,451.759,222.59,96.8213,40,0,0,-134.655
1.98,451.194,222.024,97.6211,40,0,0,-135.374
2,450.621,221.466,98.4209,40,0,0,-136.15
2.02,450.04,220.916,99.2209,40,0,0,-136.988
2.04,449.451,220.374,100.021,40,0,0,-137.892
2.06,448.853,219.843,100.821,40,0,0,-138.891
2.08,448.245,219.322,101.622,40,0,0,-139.98
2.1,447.628,218.814,102.421,40,0,0,-141.183
2.12,447,218.319,103.221,40,0,0,-142.477
2.14,446.36,217.838,104.021,40,0,0,-143.806
2.16,445.709,217.374,104.821,40,0,0,-145.37
2.18,445.045,216.927,105.621,40,0,0,-147.006
2.2,444.368,216.501,106.421,40,0,0,-148.785
2.22,443.678,216.097,107.221,40,0,0,-150.722
2.24,442.974,215.717,108.021,40,0,0,-152.796
2.26,442.255,215.364,108.822,40,0,0,-155.038
2.28,441.524,215.041,109.621,40,0,0,-157.512
2.3,440.778,214.75,110.421,40,0,0,-160.12
2.32,440.02,214.495,111.221,40,0,0,-162.867
2.34,439.25,214.279,112.021,40,0,0,-165.818
2.36,438.47,214.103,112.821,40,0,0,-168.925
2.38,437.681,213.97,113.621,40,0,0,-172.121
2.4,436.886,213.883,114.42,40,0,0,-175.414
2.42,436.087,213.842,115.22,40,0,0,-178.77
2.44,435.287,213.848,116.02,40,0,0,177.876
2.46,434.489,213.901,116.82,40,0,0,174.525
2.48,433.696,214.001,117.62,40,0,0,171.294
2.5,432.909,214.144,118.419,40,0,0,168.164
2.52,432.131,214.33,119.219,40,0,0,165.133
2.54,431.363,214.556,120.02,40,0,0,162.219
2.56,430.608,214.819,120.819,40,0,0,159.593
2.58,429.865,215.116,121.62,40,0,0,157.065
2.6,429.135,215.444,122.42,40,0,0,154.719
2.62,428.419,215.8,123.219,40,0,0,152.558
2.64,427.717,216.183,124.019,40,0,0,150.529
2.66,427.027,216.589,124.82,40,0,0,148.675
2.68,426.351,217.016,125.619,40,0,0,146.996
2.7,425.687,217.462,126.419,40,0,0,145.419
2.72,425.035,217.925,127.219,40,0,0,143.951
2.74,424.394,218.404,128.019,40,0,0,142.652
2.76,423.764,218.897,128.819,40,0,0,141.402
2.78,423.144,219.403,129.619,40,0,0,140.275
2.8,422.534,219.92,130.419,40,0,0,139.246
2.82,421.932,220.448,131.22,40,0,0,138.3
2.84,421.339,220.985,132.02,40,0,0,137.43
2.86,420.754,221.53,132.819,40,0,0,136.646
2.88,420.176,222.083,133.619,40,0,0,135.926
2.9,419.605,222.643,134.419,40,0,0,135.264
2.92,419.04,223.21,135.219,40,0,0,134.656
2.94,418.481,223.782,136.019,40,0,0,134.099
2.96,417.927,224.359,136.819,40,0,0,133.603
2.98,417.377,224.94,137.619,40,0,0,133.154
3,416.832,225.526,138.419,40,0,0,132.747
3.02,416.291,226.115,139.219,40,0,0,132.383
3.04,415.754,226.708,140.019,40,0,0,132.065
3.06,415.219,227.303,140.819,40,0,0,131.797
3.08,414.688,227.901,141.619,40,0,0,131.568
3.1,414.158,228.5,142.419,40,0,0,131.375
3.12,413.63,229.102,143.22,40,0,0,131.218
3.14,413.104,229.704,144.019,40,0,0,131.096
3.16,412.579,230.307,144.818,40,0,0,130.977
3.18,412.056,230.913,145.619,40,0,0,130.63
3.2,411.537,231.522,146.419,40,0,0,130.267
3.22,411.022,232.134,147.219,40,0,0,129.969
3.24,410.51,232.749,148.019,40,0,0,129.729
3.26,410,233.365,148.819,40,0,0,129.603
3.28,409.49,233.982,149.619,40,0,0,129.532
3.3,408.982,234.599,150.419,40,0,0,129.507
3.32,408.473,235.217,151.219,40,0,0,129.535
3.34,407.963,235.833,152.019,40,0,0,129.626
3.36,407.453,236.449,152.819,40,0,0,129.784
3.38,406.94,237.063,153.619,40,0,0,129.985
3.4,406.425,237.675,154.419,40,0,0,130.227
3.42,405.907,238.285,155.219,40,0,0,130.514
3.44,405.385,238.892,156.02,40,0,0,130.854
3.46,404.86,239.495,156.819,40,0,0,131.237
3.48,404.331,240.095,157.619,40,0,0,131.647
3.5,403.797,240.691,158.419,40,0,0,132.079
3.52,403.259,241.283,159.219,40,0,0,132.525
3.54,402.716,241.87,160.019,40,0,0,132.977
3.56,402.168,242.453,160.819,40,0,0,133.416
3.58,401.616,243.032,161.619,40,0,0,133.823
3.6,401.06,243.608,162.419,40,0,0,134.181
3.62,400.501,244.18,163.219,40,0,0,134.476
3.64,399.939,244.749,164.019,40,0,0,134.697
3.66,399.376,245.317,164.819,40,0,0,134.801
3.68,398.811,245.884,165.619,40,0,0,134.803
3.7,398.248,246.452,166.419,40,0,0,134.705
3.72,397.686,247.021,167.219,40,0,0,134.511
3.74,397.126,247.593,168.019,40,0,0,134.225
3.76,396.569,248.168,168.82,40,0,0,133.84
3.78,396.017,248.746,169.619,40,0,0,133.393
3.8,395.47,249.33,170.419,40,0,0,132.901
3.82,394.928,249.918,171.219,40,0,0,132.376
3.84,394.392,250.512,172.019,40,0,0,131.829
3.86,393.861,251.111,172.819,40,0,0,131.273
3.88,393.336,251.714,173.619,40,0,0,130.723
3.9,392.817,252.323,174.419,40,0,0,130.19
3.92,392.304,252.937,175.219,40,0,0,129.676
3.94,391.796,253.555,176.019,40,0,0,129.186
3.96,391.293,254.177,176.819,40,0,0,128.728
3.98,390.795,254.803,177.619,40,0,0,128.301
4,390.301,255.433,178.42,40,36.952,0,127.912
4.02,389.816,256.061,179.213,39.5137,99.383,0,127.564
4.04,389.344,256.678,179.99,37.7637,142.145,0,127.251
4.06,388.912,257.249,180.706,34.9228,142.5,0,126.997
4.08,388.513,257.781,181.371,32.0728,142.5,0,126.792
4.1,388.137,258.285,182,29.2228,142.5,0,126.622
4.12,387.821,258.712,182.531,26.3728,142.5,0,126.509
4.14,387.514,259.127,183.047,23.5228,142.5,0,126.401
4.16,387.273,259.455,183.454,20.6728,142.5,0,126.335
4.18,387.032,259.784,183.862,17.8228,142.5,0,126.268
4.2,386.885,259.984,184.11,14.9728,142.5,0,126.239
4.22,386.785,260.12,184.279,12.1228,142.5,0,126.229
4.24,386.686,260.256,184.447,9.27283,142.5,0,126.219
4.26,386.586,260.392,184.616,6.42283,142.5,0,126.208
4.28,386.486,260.529,184.786,3.57283,142.5,0,126.198
4.3,386.387,260.665,184.954,0.722831,142.5,0,126.188
