"time","x","y","position","velocity","acceleration","jerk","heading"
0,21.3369,88.8585,0,0,0,0,0
0.02,21.5298,88.8585,0.192899,9.64495,482.247,24112.4,0.0110796
0.04,21.7228,88.8585,0.385898,9.64995,0.25,-24099.9,0.0221592
0.06,21.9157,88.8585,0.578797,9.64495,-0.250001,-25,0.0332388
0.08,22.1086,88.8585,0.771696,9.64494,-7.30625e-05,12.4964,0.0443183
0.1,22.3016,88.8585,0.964695,9.64995,0.250071,12.5072,0.0553979
0.12,22.704,88.8595,1.36706,20.1182,523.413,26158.1,0.113803
0.14,23.1839,88.8606,1.84699,23.9965,193.913,-16475,0.189753
0.16,23.7527,88.8627,2.41579,28.4403,222.193,1413.95,0.310294
0.18,24.3951,88.8671,3.0582,32.1201,183.989,-1910.19,0.467846
0.2,25.1578,88.8748,3.821,38.1404,301.014,5851.26,0.706735
0.22,25.9995,88.8871,4.66276,42.0877,197.366,-5182.41,1.01767
0.24,26.9344,88.9065,5.59786,46.7551,233.368,1800.14,1.40914
0.26,27.9579,88.9351,6.62172,51.1928,221.889,-573.991,1.85181
0.28,29.1013,88.9777,7.76591,57.2098,300.848,3947.98,2.45249
0.3,30.3368,89.037,9.00286,61.8475,231.886,-3448.12,3.11768
0.32,31.692,89.1208,10.3607,67.8919,302.218,3516.63,3.94896
0.34,33.1447,89.2324,11.8176,72.8469,247.751,-2723.35,4.87634
0.36,34.7027,89.3792,13.3825,78.243,269.803,1102.6,5.93557
0.38,36.3572,89.5676,15.0477,83.261,250.904,-944.986,7.10633
0.4,38.1176,89.8072,16.8244,88.8334,278.62,1385.81,8.38299
0.42,39.9537,90.0999,18.6836,92.9618,206.42,-3610,9.71877
0.44,41.8627,90.4505,20.6245,97.0455,204.183,-111.85,11.0741
0.46,43.809,90.8558,22.6126,99.4055,118,-4309.14,12.3587
0.48,45.765,91.3048,24.6195,100.345,46.9681,-3551.6,13.444
0.5,47.6963,91.7836,26.6093,99.4859,-42.9483,-4495.82,14.2239
0.52,49.5464,92.2602,28.5197,95.5235,-198.12,-7758.57,14.4837
0.54,51.2655,92.7016,30.2947,88.747,-338.825,-7035.26,14.0248
0.56,52.8257,93.0772,31.8994,80.2353,-425.583,-4337.92,12.7308
0.58,54.1287,93.3487,33.2304,66.5502,-684.255,-12933.6,10.4083
0.6,55.1809,93.5177,34.2961,53.2871,-663.158,1054.88,7.3848
0.62,56.0445,93.6052,35.1641,43.3971,-494.497,8433.05,3.9223
0.64,56.7918,93.6327,35.9119,37.3913,-300.293,9710.18,0.246568
0.66,57.5301,93.6122,36.6505,36.9282,-23.1537,13857,-3.4335
0.68,58.3307,93.5368,37.4547,40.2101,164.094,9362.4,-7.02912
0.7,59.2559,93.3927,38.391,46.8169,330.34,8312.28,-10.4076
0.72,60.3314,93.1625,39.4908,54.9905,408.682,3917.11,-13.4696
0.74,61.574,92.8302,40.7771,64.3171,466.329,2882.33,-16.136
0.76,62.9915,92.3868,42.2623,74.2597,497.132,1540.18,-18.362
0.78,64.5854,91.8259,43.952,84.4857,511.298,708.294,-20.1288
0.8,66.3456,91.1543,45.836,94.1999,485.709,-1279.45,-21.4695
0.82,68.3153,90.3622,47.959,106.147,597.361,5582.61,-22.2401
0.84,70.4253,89.4909,50.2418,114.141,399.714,-9882.36,-22.6999
0.86,72.4484,88.6277,52.4414,109.978,-208.167,-30394.1,-23.7007
0.88,74.3523,87.7632,54.5324,104.552,-271.309,-3157.09,-25.3238
0.9,76.147,86.8744,56.5351,100.135,-220.864,2522.24,-27.4836
0.92,77.8007,85.9702,58.4199,94.2395,-294.755,-3694.53,-29.9681
0.94,79.3174,85.0489,60.1944,88.7257,-275.69,953.248,-32.591
0.96,80.7552,84.0823,61.9269,86.6265,-104.959,8536.54,-35.2445
0.98,82.1633,83.0374,63.6804,87.6739,52.3715,7866.53,-37.8802
1,83.5802,81.8818,65.5088,91.4204,187.324,6747.63,-40.453
1.02,85.0236,80.5955,67.4422,96.6671,262.336,3750.57,-42.8835
1.04,86.4496,79.2185,69.4245,99.1187,122.58,-6987.78,-45.0204
1.06,87.8459,77.7746,71.4331,100.425,65.3306,-2862.46,-46.8231
1.08,89.2218,76.2683,73.4732,102.008,79.1143,689.182,-48.2581
1.1,90.5811,74.7124,75.5393,103.302,64.7417,-718.63,-49.3609
1.12,91.9297,73.1171,77.6282,104.449,57.3459,-369.79,-50.1349
1.14,93.2738,71.4918,79.7373,105.452,50.1475,-359.918,-50.5849
1.16,94.6264,69.8409,81.8715,106.712,62.9711,641.18,-50.7021
1.18,95.9959,68.1708,84.0313,107.99,63.8926,46.0757,-50.4809
1.2,97.3905,66.4936,86.2126,109.063,53.689,-510.182,-49.9364
1.22,98.8295,64.8063,88.4302,110.882,90.91,1861.05,-49.0143
1.24,100.323,63.1221,90.6813,112.554,83.6348,-363.759,-47.7282
1.26,101.9,61.4358,92.9902,115.443,144.423,3039.39,-45.9955
1.28,103.564,59.7717,95.3434,117.664,111.064,-1667.95,-43.8626
1.3,105.363,58.1195,97.7861,122.131,223.37,5615.29,-41.1558
1.32,107.306,56.5116,100.308,126.078,197.332,-1301.86,-37.9374
1.34,109.406,54.977,102.909,130.068,199.511,108.926,-34.1897
1.36,111.677,53.5513,105.59,134.07,200.11,29.9474,-29.9144
1.38,114.108,52.2806,108.333,137.127,152.826,-2364.18,-25.1732
1.4,116.665,51.2118,111.105,138.604,73.8277,-3949.93,-20.1064
1.42,119.323,50.3753,113.891,139.308,35.2291,-1929.93,-14.7942
1.44,122.055,49.7903,116.685,139.679,18.5565,-833.634,-9.35657
1.46,124.832,49.4679,119.481,139.803,6.20116,-617.765,-3.89961
1.48,127.623,49.4098,122.273,139.586,-10.8788,-854,1.48284
1.5,130.397,49.6089,125.053,139.047,-26.9578,-803.947,6.67506
1.52,133.12,50.0481,127.812,137.94,-55.3442,-1419.32,11.5581
1.54,135.758,50.6997,130.529,135.829,-105.537,-2509.62,16.0686
1.56,138.272,51.5237,133.175,132.313,-175.812,-3513.76,20.0648
1.58,140.666,52.4862,135.755,128.993,-166.008,490.195,23.5973
1.6,142.924,53.5456,138.249,124.685,-215.372,-2468.19,26.5631
1.62,145.057,54.6733,140.662,120.658,-201.335,701.834,29.012
1.64,147.102,55.8586,143.026,118.202,-122.837,3924.91,31.0459
1.66,149.043,57.0645,145.311,114.257,-197.208,-3718.58,32.5501
1.68,150.919,58.29,147.551,112.021,-111.804,4270.22,33.648
1.7,152.721,59.5068,149.726,108.72,-165.049,-2662.26,34.2703
1.72,154.444,60.6873,151.815,104.439,-214.08,-2451.54,34.561
1.74,156.197,61.9039,153.948,106.658,110.964,16252.2,35.2419
1.76,158.033,63.2302,156.213,113.249,329.562,10929.9,36.6324
1.78,159.928,64.6875,158.604,119.548,314.936,-731.331,38.7043
1.8,161.836,66.2852,161.093,124.443,244.768,-3508.38,41.3614
1.82,163.727,68.0423,163.674,129.053,230.456,-715.616,44.5935
1.84,165.576,69.9874,166.358,134.197,257.234,1338.93,48.4364
1.86,167.313,72.092,169.086,136.422,111.232,-7300.13,52.6691
1.88,168.906,74.3626,171.86,138.701,113.977,137.251,57.3236
1.9,170.304,76.7547,174.63,138.516,-9.28831,-6163.25,62.1816
1.92,171.487,79.254,177.396,138.273,-12.1208,-141.622,67.1601
1.94,172.45,81.8565,180.171,138.746,23.6395,1788.01,72.2315
1.96,173.179,84.5313,182.943,138.609,-6.84373,-1524.16,77.269
1.98,173.671,87.2597,185.715,138.625,0.77283,380.828,82.2201
2,173.93,90.0061,188.474,137.929,-34.7791,-1777.6,86.9316
2.02,173.966,92.7753,191.243,138.474,27.2256,3100.24,91.4647
2.04,173.796,95.4901,193.964,136.007,-123.323,-7527.43,95.5637
2.06,173.443,98.1592,196.656,134.609,-69.9055,2670.88,99.3339
2.08,172.94,100.742,199.287,131.551,-152.88,-4148.71,102.621
2.1,172.313,103.236,201.859,128.588,-148.15,236.503,105.462
2.12,171.581,105.663,204.393,126.744,-92.2396,2795.5,107.93
2.14,170.766,108.027,206.894,125.031,-85.6362,330.172,110.029
2.16,169.882,110.335,209.366,123.612,-70.9621,733.704,111.778
2.18,168.942,112.602,211.82,122.679,-46.6436,1215.92,113.211
2.2,167.956,114.835,214.261,122.039,-32.0006,732.149,114.35
2.22,166.935,117.044,216.695,121.696,-17.1248,743.793,115.213
2.24,165.886,119.236,219.125,121.5,-9.81066,365.705,115.82
2.26,164.82,121.419,221.554,121.473,-1.37176,421.945,116.175
2.28,163.747,123.595,223.981,121.333,-6.97208,-280.016,116.265
2.3,162.687,125.748,226.38,119.972,-68.0792,-3055.35,116.098
2.32,161.694,127.791,228.652,113.572,-319.977,-12594.9,115.667
2.34,160.783,129.715,230.78,106.418,-357.675,-1884.92,114.987
2.36,159.956,131.523,232.769,99.4329,-349.28,419.748,114.068
2.38,159.219,133.216,234.615,92.2971,-356.787,-375.342,112.906
2.4,158.577,134.787,236.312,84.8799,-370.86,-703.633,111.483
2.42,158.03,136.233,237.858,77.2858,-379.709,-442.454,109.783
2.44,157.579,137.553,239.253,69.7566,-376.46,162.434,107.811
2.46,157.222,138.739,240.491,61.9085,-392.402,-797.074,105.539
2.48,156.957,139.77,241.556,53.2293,-433.962,-2078.02,102.924
2.5,156.782,140.627,242.43,43.7371,-474.611,-2032.42,99.8991
2.52,156.679,141.318,243.129,34.9187,-440.917,1684.7,96.5101
2.54,156.633,141.845,243.658,26.4681,-422.534,919.153,92.7821
2.56,156.626,142.164,243.978,15.972,-524.802,-5113.42,88.5878
2.58,156.634,142.335,244.149,8.55778,-370.713,7704.46,84.113
2.6,156.632,142.34,244.154,0.25911,-414.934,-2211.04,79.3186
2.62,156.606,142.237,244.26,5.31681,252.885,33390.9,74.3473
2.64,156.541,142.046,244.461,10.0493,236.624,-813.038,69.1807
2.66,156.44,141.814,244.715,12.6602,130.542,-5304.1,63.935
2.68,156.307,141.572,244.991,13.8112,57.5502,-3649.61,58.6363
2.7,156.163,141.357,245.25,12.9543,-42.8405,-5019.54,53.3739
2.72,156.021,141.181,245.476,11.3131,-82.0627,-1961.11,48.1532
2.74,155.938,141.095,245.595,5.96733,-267.288,-9261.27,43.168
2.76,155.912,141.069,245.633,1.86385,-205.174,3105.71,38.2873
2.78,155.998,141.129,245.738,5.27162,170.388,18778.1,33.6955
2.8,156.208,141.254,245.982,12.1984,346.341,8797.65,29.321
2.82,156.565,141.435,246.383,20.0277,391.464,2256.12,25.2564
2.84,157.073,141.651,246.934,27.5704,377.132,-716.608,21.4543
2.86,157.733,141.885,247.635,35.0452,373.744,-169.385,17.9207
2.88,158.538,142.117,248.472,41.8763,341.554,-1609.51,14.6181
2.9,159.477,142.334,249.436,48.1777,315.072,-1324.09,11.4992
2.92,160.53,142.517,250.505,53.4409,263.16,-2595.6,8.49523
2.94,161.673,142.657,251.657,57.5929,207.598,-2778.1,5.5296
2.96,162.87,142.742,252.857,60.0186,121.287,-4315.55,2.48907
2.98,164.194,142.762,254.181,66.1771,307.924,9331.83,-0.256931
3,166.025,142.734,256.012,91.5753,1269.91,48099.2,-1.45792
3.02,167.908,142.665,257.897,94.2294,132.707,-56860,-2.72528
3.04,169.842,142.551,259.833,96.8319,130.122,-129.254,-4.06019
3.06,171.826,142.386,261.825,99.5658,136.697,328.732,-5.46283
3.08,173.858,142.165,263.869,102.212,132.306,-219.519,-6.925
3.1,175.94,141.885,265.97,105.036,141.194,444.389,-8.44558
3.12,178.07,141.538,268.127,107.879,142.162,48.4027,-10.0121
3.14,180.252,141.122,270.348,111.044,158.23,803.412,-11.6147
3.16,182.484,140.63,272.634,114.3,162.839,230.432,-13.2377
3.18,184.772,140.057,274.993,117.949,182.408,978.429,-14.8613
3.2,187.118,139.399,277.429,121.818,193.453,552.287,-16.4629
3.22,189.526,138.651,279.951,126.081,213.145,984.594,-18.0182
3.24,192.003,137.809,282.567,130.82,236.96,1190.76,-19.4951
3.26,194.556,136.869,285.288,136.027,260.342,1169.06,-20.8638
3.28,197.191,135.831,288.119,141.562,276.765,821.161,-22.0952
3.3,199.914,134.696,291.07,147.53,298.415,1082.51,-23.1599
3.32,202.736,133.461,294.15,154.033,325.131,1335.8,-24.0277
3.34,205.667,132.134,297.368,160.858,341.247,805.79,-24.6718
3.36,208.711,130.72,300.724,167.824,348.332,354.283,-25.0822
3.38,211.88,129.23,304.226,175.09,363.291,747.935,-25.2402
3.4,215.157,127.687,307.848,181.118,301.379,-3095.63,-25.151
3.42,218.484,126.134,311.519,183.551,121.649,-8986.46,-24.8277
3.44,221.81,124.612,315.177,182.91,-32.0512,-7685.03,-24.3083
3.46,225.13,123.135,318.81,181.648,-63.0918,-1552.03,-23.6287
3.48,228.434,121.717,322.406,179.774,-93.7146,-1531.14,-22.8295
3.5,231.713,120.366,325.953,177.357,-120.813,-1354.9,-21.9432
3.52,234.963,119.086,329.446,174.635,-136.109,-764.843,-21.0019
3.54,238.175,117.885,332.875,171.455,-159.005,-1144.8,-20.0301
3.56,241.34,116.762,336.234,167.937,-175.89,-844.231,-19.0515
3.58,244.453,115.716,339.518,164.203,-186.727,-541.832,-18.0832
3.6,247.508,114.746,342.723,160.247,-197.764,-551.861,-17.1391
3.62,250.499,113.85,345.845,156.101,-207.329,-478.264,-16.2295
3.64,253.424,113.023,348.884,151.992,-205.461,93.4177,-15.3616
3.66,256.278,112.26,351.839,147.713,-213.938,-423.845,-14.5398
3.68,259.057,111.56,354.705,143.3,-220.665,-336.356,-13.768
3.7,261.762,110.915,357.485,139.02,-213.965,335,-13.047
3.72,264.39,110.322,360.18,134.746,-213.71,12.7627,-12.3761
3.74,266.94,109.777,362.787,130.328,-220.879,-358.485,-11.756
3.76,269.41,109.277,365.308,126.051,-213.894,349.256,-11.1843
3.78,271.803,108.815,367.745,121.856,-209.74,207.725,-10.6588
3.8,274.116,108.39,370.096,117.555,-215.034,-264.702,-10.1786
3.82,276.348,107.998,372.362,113.328,-211.355,183.924,-9.74103
3.84,278.5,107.636,374.545,109.119,-210.451,45.2127,-9.34365
3.86,280.574,107.301,376.645,105.026,-204.651,290.028,-8.98333
3.88,282.569,106.992,378.664,100.923,-205.172,-26.0523,-8.65876
3.9,284.485,106.706,380.602,96.8898,-201.637,176.716,-8.36633
3.92,286.321,106.44,382.456,92.7328,-207.85,-310.639,-8.10556
3.94,288.077,106.193,384.23,88.6769,-202.797,252.654,-7.8735
3.96,289.758,105.964,385.926,84.8343,-192.131,533.306,-7.66673
3.98,291.361,105.751,387.543,80.8494,-199.242,-355.557,-7.48535
4,292.886,105.553,389.081,76.8906,-197.94,65.1186,-7.32508
4.02,294.334,105.368,390.541,73.0074,-194.162,188.868,-7.18715
4.04,295.71,105.197,391.928,69.3245,-184.144,500.891,-7.06547
4.06,297.002,105.038,393.229,65.0579,-213.328,-1459.2,-6.96311
4.08,298.222,104.889,394.458,61.4468,-180.558,1638.53,-6.87593
4.1,299.367,104.753,395.612,57.6821,-188.233,-383.773,-6.80083
4.12,300.438,104.626,396.69,53.9069,-188.76,-26.3588,-6.73937
4.14,301.432,104.508,397.691,50.0675,-191.971,-160.534,-6.68912
4.16,302.352,104.401,398.617,46.3083,-187.96,200.543,-6.64756
4.18,303.197,104.303,399.467,42.51,-189.912,-97.5777,-6.61436
4.2,303.973,104.213,400.249,39.0821,-171.395,925.832,-6.58835
4.22,304.683,104.131,400.963,35.7199,-168.11,164.261,-6.56842
4.24,305.291,104.062,401.575,30.5981,-256.092,-4399.1,-6.55445
4.26,305.855,103.996,402.144,28.41,-109.404,7334.41,-6.54251
4.28,306.313,103.944,402.605,23.052,-267.901,-7924.87,-6.53529
4.3,306.758,103.893,403.053,22.3968,-32.761,11757,-6.52833
4.32,306.948,103.872,403.243,9.52447,-643.615,-30542.7,-6.5272
4.34,307.136,103.85,403.433,9.4806,-2.19336,32071.1,-6.52606
4.36,307.325,103.829,403.623,9.52461,2.20058,219.697,-6.52492
4.38,307.514,103.807,403.813,9.4806,-2.20058,-220.058,-6.52378
4.4,307.703,103.785,404.003,9.53026,2.48315,234.186,-6.52264
