"time","x","y","position","velocity","acceleration","jerk","heading"
0,48.9305,154.813,0,0,180,0,-37.0928
0.02,49.0818,154.698,0.189737,3.6,180,0,-37.0969
0.04,49.2332,154.584,0.379473,7.2,180,0,-37.101
0.06,49.3845,154.47,0.56921,10.8,180,0,-37.1051
0.08,49.5358,154.355,0.758947,14.4,180,0,-37.1093
0.1,49.6871,154.241,0.948683,18,180,0,-37.1134
0.12,49.9945,154.008,1.33418,21.6,180,0,-37.1333
0.14,50.3597,153.731,1.79224,25.2,180,0,-37.1591
0.16,50.7852,153.409,2.3262,28.8,180,0,-37.1999
0.18,51.2606,153.048,2.92317,32.4,180,0,-37.2531
0.2,51.8126,152.627,3.61697,36,180,0,-37.3343
0.22,52.4102,152.171,4.36898,39.6,155.094,0,-37.4359
0.24,53.0599,151.673,5.18787,42.9099,91.3649,0,-37.5646
0.26,53.7537,151.138,6.06396,45,0,0,-37.7239
0.28,54.4647,150.586,6.96396,45,0,0,-37.9113
0.3,55.1738,150.032,7.86396,45,0,0,-38.1229
0.32,55.8807,149.475,8.76396,45,0,0,-38.3567
0.34,56.5853,148.915,9.66396,45,0,0,-38.6137
0.36,57.2872,148.351,10.564,45,0,0,-38.8924
0.38,57.9863,147.784,11.464,45,0,0,-39.1919
0.4,58.6823,147.214,12.364,45,0,0,-39.5118
0.42,59.375,146.639,13.264,45,0,0,-39.8538
0.44,60.0642,146.06,14.164,45,0,0,-40.2179
0.46,60.7496,145.477,15.064,45,0,0,-40.5892
0.48,61.4311,144.889,15.964,45,0,0,-40.9876
0.5,62.1084,144.297,16.864,45,0,0,-41.3925
0.52,62.7815,143.699,17.764,45,0,0,-41.8165
0.54,63.45,143.097,18.664,45,0,0,-42.2461
0.56,64.114,142.489,19.564,45,0,0,-42.6826
0.58,64.7732,141.876,20.464,45,0,0,-43.1215
0.6,65.4278,141.259,21.364,45,0,0,-43.5567
0.62,66.0776,140.636,22.264,45,0,0,-43.9831
0.64,66.7228,140.009,23.164,45,29.513,0,-44.3956
0.66,67.3656,139.375,24.0667,45.2558,180,0,-44.7933
0.68,68.0294,138.711,25.0055,48.8558,180,0,-45.1638
0.7,68.7415,137.99,26.0189,52.4558,180,0,-45.537
0.72,69.5006,137.211,27.1061,56.0558,180,0,-45.8539
0.74,70.3057,136.377,28.2654,59.6558,180,0,-46.1191
0.76,71.1563,135.489,29.4953,63.2558,180,0,-46.2986
0.78,72.0526,134.549,30.7942,66.8558,180,0,-46.3624
0.8,72.9996,133.556,32.1664,70.4558,180,0,-46.2975
0.82,74.0005,132.511,33.613,74.0558,180,0,-46.0775
0.84,75.0542,131.423,35.1278,77.6558,180,0,-45.7157
0.86,76.1691,130.289,36.7181,81.2558,180,0,-45.2251
0.88,77.345,129.116,38.3794,84.8558,180,0,-44.6278
0.9,78.584,127.906,40.1107,88.4558,180,0,-43.9701
0.92,79.8905,126.661,41.9155,92.0558,180,0,-43.2882
0.94,81.2651,125.382,43.7934,95.6558,180,0,-42.6266
0.96,82.7066,124.07,45.7427,99.2558,180,0,-42.0238
0.98,84.2143,122.724,47.7636,102.856,180,0,-41.5079
1,85.7865,121.343,49.8561,106.456,180,0,-41.1182
1.02,87.4205,119.924,52.0204,110.056,180,0,-40.8775
1.04,89.1142,118.461,54.2587,113.656,180,0,-40.8202
1.06,90.8607,116.95,56.5681,117.256,180,0,-40.9728
1.08,92.6527,115.384,58.9479,120.856,180,0,-41.3828
1.1,94.4844,113.75,61.4021,124.456,82.4382,0,-42.1343
1.12,96.3193,112.064,63.8942,123.522,-180,0,-43.0859
1.14,98.0798,110.384,66.3278,119.922,-180,0,-44.293
1.16,99.7517,108.715,68.6902,116.322,-180,0,-45.6473
1.18,101.334,107.056,70.9827,112.883,-107.954,0,-47.0939
1.2,102.837,105.396,73.2218,111.366,-3.34185,0,-48.5739
1.22,104.29,103.706,75.4515,111.868,103.477,0,-50.0615
1.24,105.717,101.956,77.7092,113.821,-109.797,0,-51.525
1.26,107.096,100.177,79.9604,110.838,-180,0,-52.8899
1.28,108.393,98.4246,82.1404,107.238,-180,0,-54.0427
1.3,109.617,96.7077,84.2486,103.638,-180,0,-54.9534
1.32,110.776,95.0332,86.2851,100.038,-180,0,-55.5903
1.34,111.88,93.4083,88.2499,96.4381,-180,0,-55.923
1.36,112.94,91.8394,90.1431,92.8381,-180,0,-55.9165
1.38,113.964,90.333,91.9648,89.2381,-180,0,-55.5622
1.4,114.96,88.8979,93.7115,85.6381,-180,0,-54.8355
1.42,115.936,87.5357,95.3875,82.0381,-180,0,-53.7563
1.44,116.901,86.2496,96.9954,78.4381,-180,0,-52.2898
1.46,117.853,85.053,98.5243,74.8381,-180,0,-50.5205
1.48,118.802,83.9378,99.9888,71.2381,-180,0,-48.4931
1.5,119.739,82.9187,101.373,67.6381,-180,0,-46.1488
1.52,120.67,81.9876,102.69,64.0381,-136.305,0,-43.6454
1.54,121.597,81.1407,103.946,61.4006,-105.074,0,-41.0492
1.56,122.525,80.3702,105.152,59.3768,-69.5215,0,-38.2587
1.58,123.463,79.6657,106.326,58.0852,-32.1657,0,-35.4584
1.6,124.42,79.0192,107.481,57.4689,-10.4807,0,-32.5791
1.62,125.402,78.4259,108.628,57.2926,25.1277,0,-29.6975
1.64,126.416,77.8816,109.779,57.8295,31.275,0,-26.8172
1.66,127.466,77.3836,110.941,58.4494,100.261,0,-23.9741
1.68,128.564,76.9283,112.13,60.3685,69.5443,0,-21.1834
1.7,129.716,76.5143,113.354,62.0192,141.157,0,-18.468
1.72,130.928,76.1418,114.622,64.8284,158.457,0,-15.8316
1.74,132.21,75.8095,115.947,68.0546,179.525,0,-13.3234
1.76,133.579,75.5162,117.346,71.6475,180,0,-10.9662
1.78,135.025,75.266,118.814,75.2475,180,0,-8.76625
1.8,136.552,75.0588,120.356,78.8475,180,0,-6.77236
1.82,138.154,74.8948,121.966,82.4475,180,0,-5.00518
1.84,139.837,74.7713,123.653,86.0475,180,0,-3.48728
1.86,141.592,74.6858,125.41,89.6475,180,0,-2.20214
1.88,143.419,74.6332,127.238,93.2475,180,0,-1.18948
1.9,145.318,74.6071,129.138,96.7413,65.8239,0,-0.477099
1.92,147.255,74.5994,131.075,95.6721,-180,0,-0.0712509
1.94,149.133,74.599,132.952,92.0721,-180,0,0.0798934
1.96,150.937,74.6049,134.756,88.4721,-180,0,0.446586
1.98,152.669,74.6271,136.489,84.8721,-180,0,1.17276
2,154.331,74.6743,138.151,81.2721,-180,0,2.22431
2.02,155.917,74.7524,139.74,77.6721,-180,0,3.5727
2.04,157.43,74.8665,141.257,74.0721,-180,0,5.20816
2.06,158.867,75.0196,142.702,70.4721,-180,0,7.13012
2.08,160.229,75.2139,144.077,66.8721,-180,0,9.28932
2.1,161.505,75.4486,145.375,63.2721,-180,0,11.7279
2.12,162.702,75.7241,146.604,59.6721,-168.894,0,14.397
2.14,163.819,76.0385,147.764,56.3185,-144.128,0,17.2024
2.16,164.86,76.3898,148.863,53.4492,-125.928,0,20.2591
2.18,165.83,76.7771,149.907,50.9339,-98.8531,0,23.4628
2.2,166.735,77.1997,150.906,48.9588,-73.3115,0,26.7744
2.22,167.582,77.6586,151.87,47.4923,-51.4008,0,30.1945
2.24,168.379,78.1552,152.809,46.4619,-33.8908,0,33.7419
2.26,169.129,78.6907,153.731,45.7793,-14.2528,0,37.3556
2.28,169.837,79.2669,154.644,45.4837,6.097,0,40.9941
2.3,170.505,79.886,155.555,45.59,26.1849,0,44.6358
2.32,171.137,80.5509,156.472,46.0948,44.4504,0,48.2633
2.34,171.733,81.2646,157.403,46.9677,63.3866,0,51.8457
2.36,172.297,82.0309,158.354,48.2181,86.2755,0,55.3342
2.38,172.83,82.8546,159.335,49.9332,111.711,0,58.6978
2.4,173.334,83.7422,160.356,52.1693,136.058,0,61.9486
2.42,173.81,84.701,161.426,54.9015,155.761,0,65.0837
2.44,174.257,85.737,162.555,58.0373,174.155,0,68.0305
2.46,174.675,86.8548,163.749,61.5363,180,0,70.7638
2.48,175.062,88.0563,165.011,65.1363,180,0,73.3448
2.5,175.419,89.3506,166.354,68.7363,180,0,75.644
2.52,175.742,90.7226,167.763,72.3363,180,0,77.7126
2.54,176.033,92.1762,169.246,75.9363,180,0,79.5391
2.56,176.292,93.7086,170.8,79.5363,180,0,81.1104
2.58,176.523,95.3196,172.427,83.1363,180,0,82.4194
2.6,176.73,97.0038,174.124,86.7363,180,0,83.524
2.62,176.915,98.7645,175.895,90.3363,180,0,84.3545
2.64,177.086,100.6,177.738,93.9363,180,0,84.9479
2.66,177.247,102.508,179.653,97.5363,180,0,85.3169
2.68,177.405,104.489,181.64,101.136,180,0,85.4488
2.7,177.569,106.541,183.698,104.736,180,0,85.3275
2.72,177.748,108.663,185.828,108.336,180,0,84.9506
2.74,177.951,110.84,188.015,108.629,-180,0,84.3062
2.76,178.178,112.963,190.15,105.029,-180,0,83.408
2.78,178.434,115.012,192.214,101.429,-180,0,82.2862
2.8,178.723,116.983,194.207,97.8286,-180,0,80.9718
2.82,179.048,118.876,196.128,94.2286,-180,0,79.4796
2.84,179.41,120.69,197.977,90.6286,-180,0,77.825
2.86,179.81,122.419,199.752,87.0286,-180,0,76.0299
2.88,180.248,124.065,201.456,83.4687,-176.005,0,74.1103
2.9,180.723,125.631,203.092,79.9613,-140.423,0,72.0854
2.92,181.232,127.116,204.662,77.2392,-137.823,0,69.9791
2.94,181.778,128.533,206.181,74.6088,-82.6612,0,67.7968
2.96,182.362,129.887,207.655,72.7941,-80.9923,0,65.5423
2.98,182.984,131.187,209.096,71.2771,-55.4949,0,63.2536
3,183.645,132.436,210.51,70.1855,-37.5094,0,60.8977
3.02,184.35,133.642,211.907,69.5176,-20.29,0,58.5264
3.04,185.098,134.809,213.293,69.2007,3.6246,0,56.1347
3.06,185.893,135.943,214.678,69.314,28.5576,0,53.742
3.08,186.74,137.047,216.07,69.934,41.2847,0,51.3607
3.1,187.642,138.129,217.478,70.9095,82.5709,0,49.006
3.12,188.604,139.191,218.912,72.659,85.7083,0,46.6893
3.14,189.637,140.243,220.386,74.7809,158.768,0,44.4465
3.16,190.746,141.289,221.911,77.8873,177.187,0,42.2532
3.18,191.947,142.34,223.506,81.4509,180,0,40.2111
3.2,193.236,143.391,225.17,85.0509,180,0,38.3009
3.22,194.615,144.445,226.906,88.6509,180,0,36.5885
3.24,196.083,145.505,228.716,92.2509,180,0,35.2005
3.26,197.631,146.573,230.597,95.8509,180,0,34.1536
3.28,199.255,147.658,232.55,99.4509,180,0,33.5243
3.3,200.946,148.772,234.575,103.051,180,0,33.3322
3.32,202.698,149.923,236.672,106.651,180,0,33.2511
3.34,204.513,151.109,238.84,110.251,180,0,33.0695
3.36,206.394,152.328,241.081,113.851,180,0,32.7799
3.38,208.343,153.574,243.395,117.451,180,0,32.37
3.4,210.363,154.842,245.779,121.051,180,0,31.8328
3.42,212.458,156.126,248.236,124.651,158.375,0,31.146
3.44,214.618,157.41,250.749,125.379,-180,0,30.3017
3.46,216.762,158.64,253.221,121.779,-180,0,29.3239
3.48,218.865,159.795,255.62,118.179,-180,0,28.219
3.5,220.928,160.875,257.949,114.579,-180,0,27.0018
3.52,222.948,161.877,260.204,110.979,-180,0,25.6739
3.54,224.926,162.799,262.387,107.379,-180,0,24.2433
3.56,226.863,163.641,264.498,103.779,-180,0,22.7195
3.58,228.754,164.402,266.537,100.179,-171.485,0,21.1089
3.6,230.601,165.085,268.506,96.7397,-139.747,0,19.4297
3.62,232.409,165.693,270.413,94.0306,-139.007,0,17.6932
3.64,234.184,166.23,272.268,91.6059,-103.973,0,15.9094
3.66,235.934,166.699,274.08,89.5935,-58.3703,0,14.0789
3.68,237.667,167.104,275.86,88.2723,-43.3118,0,12.213
3.7,239.39,167.447,277.617,87.4752,-24.6731,0,10.3273
3.72,241.111,167.732,279.362,87.102,3.43328,0,8.42791
3.74,242.84,167.959,281.105,87.2756,29.4897,0,6.52634
3.76,244.583,168.129,282.857,87.9552,70.228,0,4.63445
3.78,246.353,168.243,284.63,89.3385,91.4515,0,2.7629
3.8,248.158,168.301,286.437,91.4446,127.495,0,0.929776
3.82,250.013,168.301,288.291,94.0829,180,0,-0.857331
3.84,251.929,168.243,290.208,97.6829,180,0,-2.58699
3.86,253.915,168.124,292.198,101.283,180,0,-4.21527
3.88,255.969,167.944,294.26,104.883,180,0,-5.72814
3.9,258.089,167.705,296.394,108.483,180,0,-7.0972
3.92,260.275,167.408,298.599,112.083,180,0,-8.30286
3.94,262.524,167.058,300.876,115.683,180,0,-9.3273
3.96,264.84,166.658,303.226,119.283,180,0,-10.1627
3.98,267.221,166.217,305.648,122.883,180,0,-10.8027
4,269.668,165.738,308.141,126.483,147.102,0,-11.2557
4.02,272.159,165.235,310.682,126.309,-180,0,-11.5255
4.04,274.599,164.735,313.173,122.709,-180,0,-11.6305
4.06,276.967,164.247,315.59,119.109,-180,0,-11.6027
4.08,279.266,163.777,317.938,115.509,-180,0,-11.4741
4.1,281.495,163.328,320.211,111.909,-180,0,-11.2661
4.12,283.655,162.903,322.412,108.309,-180,0,-11.0052
4.14,285.747,162.501,324.542,104.709,-180,0,-10.709
4.16,287.77,162.124,326.601,101.109,-180,0,-10.3925
4.18,289.725,161.772,328.587,97.509,-180,0,-10.0639
4.2,291.61,161.443,330.5,93.909,-180,0,-9.73406
4.22,293.427,161.136,332.343,90.309,-180,0,-9.41011
4.24,295.175,160.851,334.114,86.709,-180,0,-9.09714
4.26,296.852,160.587,335.812,83.109,-180,0,-8.79988
4.28,298.458,160.343,337.436,79.509,-180,0,-8.52123
4.3,299.999,160.115,338.994,75.909,-180,0,-8.26172
4.32,301.462,159.906,340.472,72.309,-180,0,-8.02614
4.34,302.861,159.712,341.884,68.709,-180,0,-7.81068
4.36,304.185,159.532,343.221,65.109,-180,0,-7.61867
4.38,305.438,159.367,344.485,61.509,-180,0,-7.44848
4.4,306.623,159.213,345.679,57.909,-180,0,-7.29853
4.42,307.737,159.072,346.802,54.309,-180,0,-7.16831
4.44,308.78,158.942,347.853,50.709,-180,0,-7.05696
4.46,309.749,158.823,348.83,47.109,-180,0,-6.96333
4.48,310.646,158.714,349.733,43.509,-180,0,-6.88665
4.5,311.469,158.615,350.562,39.909,-180,0,-6.8246
4.52,312.224,158.525,351.322,36.309,-180,0,-6.7745
4.54,312.922,158.442,352.026,32.709,-180,0,-6.73339
4.56,313.515,158.373,352.623,29.109,-180,0,-6.70591
4.58,314.057,158.309,353.168,25.509,-180,0,-6.68309
4.6,314.512,158.256,353.626,21.909,-180,0,-6.66826
4.62,314.918,158.208,354.035,18.309,-180,0,-6.65554
4.64,315.107,158.186,354.225,14.709,-180,0,-6.65214
4.66,315.295,158.164,354.414,11.109,-180,0,-6.64875
4.68,315.483,158.142,354.604,7.50902,-180,0,-6.64535
4.7,315.672,158.121,354.794,3.90902,-180,0,-6.64196
4.72,315.86,158.099,354.984,0.309022,-180,0,-6.63856
