"time","x","y","position","velocity","acceleration","jerk","heading"
0,16.6924,-434.172,0,0,0,0,0
0.02,16.8822,-434.172,0.189794,9.48971,474.485,23724.3,2.72911e-05
0.04,17.0719,-434.172,0.379488,9.48471,-0.25,-23736.8,5.45822e-05
0.06,17.2616,-434.172,0.569182,9.48471,8.9706e-12,12.5,8.18733e-05
0.08,17.4514,-434.172,0.758976,9.48971,0.25,12.5,0.000109164
0.1,17.6411,-434.172,0.948671,9.48471,-0.25,-25,0.000136455
0.12,18.0266,-434.172,1.33416,19.2744,489.483,24486.6,0.00019568
0.14,18.4846,-434.172,1.79224,22.9042,181.494,-15399.5,0.000266743
0.16,19.0185,-434.172,2.32611,26.6932,189.448,397.707,0.000434758
0.18,19.6155,-434.172,2.92305,29.8473,157.707,-1587.06,0.000683246
0.2,20.3092,-434.172,3.61679,34.6867,241.971,4213.21,0.000985731
0.22,21.0611,-434.172,4.3687,37.5955,145.439,-4826.58,0.00140081
0.24,21.8831,-434.172,5.19068,41.099,175.173,1486.71,0.00195792
0.26,22.7789,-434.172,6.08654,44.793,184.701,476.366,0.00260637
0.28,23.7494,-434.172,7.05705,48.5255,186.623,96.0881,0.00349135
0.3,24.7941,-434.172,8.10173,52.234,185.428,-59.707,0.0045092
0.32,25.9118,-434.172,9.21935,55.8812,182.356,-153.603,0.00579364
0.34,27.1006,-434.172,10.4082,59.4439,178.139,-210.88,0.00728455
0.36,28.3593,-434.172,11.6669,62.931,174.354,-189.237,0.00904639
0.38,29.6861,-434.172,12.9937,66.343,170.602,-187.609,0.0110832
0.4,31.0937,-434.171,14.4013,70.3792,201.808,1560.32,0.0134776
0.42,32.5667,-434.171,15.8743,73.6506,163.57,-1911.9,0.0162039
0.44,34.1157,-434.17,17.4233,77.4514,190.042,1323.56,0.0193186
0.46,35.7321,-434.17,19.0397,80.8173,168.295,-1087.34,0.0228129
0.48,37.425,-434.169,20.7326,84.6467,191.47,1158.79,0.0268273
0.5,39.1885,-434.168,22.4961,88.1718,176.255,-760.798,0.0312972
0.52,41.0229,-434.167,24.3305,91.7216,177.49,61.7888,0.036249
0.54,42.9292,-434.166,26.2368,95.316,179.72,111.465,0.0417211
0.56,44.9077,-434.164,28.2153,98.9252,180.459,36.9697,0.0477367
0.58,46.9584,-434.162,30.266,102.535,180.478,0.925889,0.0542578
0.6,49.0811,-434.16,32.3887,106.135,180.002,-23.763,0.0612385
0.62,51.2754,-434.158,34.583,109.716,179.049,-47.6691,0.0685923
0.64,53.5408,-434.155,36.8484,113.268,177.628,-71.0682,0.0761784
0.66,55.8793,-434.152,39.187,116.928,183.005,268.881,0.0837547
0.68,58.2902,-434.148,41.5978,120.542,180.67,-116.77,0.0910225
0.7,60.7719,-434.144,44.0795,124.084,177.113,-177.819,0.0976156
0.72,63.3274,-434.139,46.635,127.778,184.689,378.779,0.102938
0.74,65.9544,-434.135,49.2621,131.351,178.666,-301.146,0.106552
0.76,68.6532,-434.13,51.9608,134.939,179.386,35.98,0.108066
0.78,71.353,-434.124,54.6607,134.991,2.61035,-8838.76,0.107065
0.8,73.9825,-434.12,57.2902,131.475,-175.794,-8920.21,0.103809
0.82,76.541,-434.115,59.8486,127.924,-177.56,-88.3135,0.0988175
0.84,79.0265,-434.111,62.3341,124.273,-182.547,-249.325,0.0925131
0.86,81.4411,-434.107,64.7487,120.732,-177.06,274.327,0.0853929
0.88,83.784,-434.104,67.0917,117.146,-179.3,-111.979,0.0778946
0.9,86.0534,-434.101,69.3611,113.471,-183.723,-221.156,0.0703462
0.92,88.2516,-434.098,71.5593,109.91,-178.094,281.424,0.0629732
0.94,90.3781,-434.096,73.6858,106.326,-179.19,-54.7646,0.055947
0.96,92.4325,-434.094,75.7401,102.716,-180.49,-65.0006,0.0493657
0.98,94.4145,-434.093,77.7221,99.1007,-180.766,-13.8284,0.0432751
1,96.324,-434.091,79.6316,95.4751,-181.278,-25.6105,0.0377049
1.02,98.1615,-434.09,81.4691,91.8745,-180.03,62.441,0.03265
1.04,99.9278,-434.089,83.2355,88.319,-177.776,112.671,0.0281077
1.06,101.623,-434.088,84.9305,84.749,-178.497,-36.0476,0.0240241
1.08,103.242,-434.088,86.5493,80.9389,-190.505,-600.41,0.020413
1.1,104.793,-434.087,88.101,77.5846,-167.718,1139.39,0.0172071
1.12,106.268,-434.087,89.5756,73.7303,-192.715,-1249.88,0.014399
1.14,107.677,-434.087,90.9851,70.477,-162.661,1502.7,0.0118899
1.16,109.007,-434.086,92.3145,66.4724,-200.231,-1878.5,0.00981153
1.18,110.266,-434.086,93.5739,62.9698,-175.132,1254.97,0.00797586
1.2,111.457,-434.086,94.7643,59.517,-172.639,124.617,0.00639885
1.22,112.576,-434.086,95.8836,55.9641,-177.643,-250.183,0.0050873
1.24,113.621,-434.086,96.9288,52.2621,-185.1,-372.85,0.0039614
1.26,114.593,-434.086,97.901,48.6096,-182.625,123.76,0.00306718
1.28,115.49,-434.086,98.7982,44.858,-187.58,-247.751,0.00232116
1.3,116.314,-434.086,99.6213,41.1563,-185.088,124.574,0.00173916
1.32,117.067,-434.086,100.374,37.655,-175.063,501.263,0.00127431
1.34,117.762,-434.086,101.069,34.7541,-145.045,1500.92,0.000892511
1.36,118.359,-434.086,101.667,29.8527,-245.072,-5001.35,0.000644023
1.38,118.895,-434.086,102.203,26.8021,-152.528,4627.22,0.000446598
1.4,119.353,-434.086,102.661,22.9014,-195.035,-2125.36,0.000313672
1.42,119.741,-434.086,103.049,19.4011,-175.015,1001,0.000208082
1.44,119.931,-434.086,103.239,9.50029,-495.042,-16001.4,0.000180791
1.46,120.121,-434.086,103.429,9.50029,3.55271e-11,24752.1,0.0001535
1.48,120.311,-434.086,103.619,9.50029,5.38876e-07,2.6942e-05,0.000126208
1.5,120.5,-434.086,103.808,9.45029,-2.5,-125,9.89174e-05
1.52,120.69,-434.086,103.998,9.50029,2.5,250,7.16263e-05
