"time","x","y","position","velocity","acceleration","jerk","heading"
0,16.6924,-458.872,0,0,0,0,0
0.02,16.8822,-458.872,0.189806,9.49029,474.515,23725.7,2.72911e-05
0.04,17.0719,-458.872,0.379512,9.48529,-0.25,-23738.2,5.45822e-05
0.06,17.2616,-458.872,0.569218,9.48529,8.9706e-12,12.5,8.18733e-05
0.08,17.4514,-458.872,0.759024,9.49029,0.25,12.5,0.000109164
0.1,17.6411,-458.872,0.948729,9.48529,-0.25,-25,0.000136455
0.12,18.0266,-458.872,1.33424,19.2756,489.517,24488.4,0.00019568
0.14,18.4848,-458.872,1.79236,22.9058,181.506,-15400.5,0.000266743
0.16,19.0187,-458.872,2.32629,26.6968,189.552,402.293,0.000434758
0.18,19.6157,-458.872,2.92335,29.8527,157.793,-1587.94,0.000683246
0.2,20.3096,-458.872,3.61721,34.6933,242.029,4211.79,0.000985731
0.22,21.0617,-458.872,4.3693,37.6045,145.561,-4823.42,0.00140081
0.24,21.8839,-458.872,5.19152,41.111,175.327,1488.29,0.00195792
0.26,22.7801,-458.872,6.08766,44.807,184.799,473.634,0.00260637
0.28,23.751,-458.872,7.05855,48.5445,186.877,103.912,0.00349135
0.3,24.7961,-458.872,8.10367,52.256,185.572,-65.293,0.0045092
0.32,25.9142,-458.872,9.22185,55.9088,182.644,-146.397,0.00579364
0.34,27.1038,-458.872,10.4114,59.4761,178.361,-214.12,0.00728455
0.36,28.3631,-458.872,11.6707,62.969,174.646,-185.763,0.00904639
0.38,29.6909,-458.872,12.9985,66.387,170.898,-187.391,0.0110832
0.4,31.0995,-458.871,14.4071,70.4308,202.194,1564.77,0.0134776
0.42,32.5737,-458.871,15.8813,73.7094,163.928,-1913.28,0.0162039
0.44,34.1241,-458.87,17.4317,77.5186,190.46,1326.61,0.0193186
0.46,35.7419,-458.87,19.0495,80.8927,168.704,-1087.82,0.0228129
0.48,37.4366,-458.869,20.7442,84.7333,192.031,1166.36,0.0268273
0.5,39.2019,-458.868,22.5095,88.2682,176.745,-764.279,0.0312972
0.52,41.0385,-458.867,24.3461,91.8284,178.01,63.2114,0.036249
0.54,42.9472,-458.866,26.2548,95.434,180.28,113.535,0.0417211
0.56,44.9283,-458.864,28.2359,99.0549,181.045,38.2199,0.0477367
0.58,46.9818,-458.862,30.2894,102.675,181.022,-1.12181,0.0542578
0.6,49.1075,-458.86,32.4151,106.285,180.498,-26.2364,0.0612385
0.62,51.305,-458.858,34.6126,109.874,179.451,-52.3303,0.0685923
0.64,53.5736,-458.855,36.8812,113.432,177.878,-78.6555,0.0761784
0.66,55.9155,-458.852,39.2231,117.092,182.995,255.835,0.0837547
0.68,58.3294,-458.848,41.637,120.698,180.337,-132.866,0.0910225
0.7,60.8139,-458.844,44.1216,124.226,176.386,-197.553,0.0976156
0.72,63.3718,-458.839,46.6794,127.893,183.319,346.662,0.102938
0.74,66.0004,-458.835,49.308,131.429,176.825,-324.732,0.106552
0.76,68.6998,-458.83,52.0074,134.972,177.122,14.8779,0.108066
0.78,71.3992,-458.824,54.7068,134.97,-0.100168,-8861.13,0.107065
0.8,74.0273,-458.82,57.3349,131.405,-178.224,-8906.2,0.103809
0.82,76.5836,-458.815,59.8912,127.816,-179.431,-60.3192,0.0988175
0.84,79.0663,-458.811,62.374,124.137,-183.962,-226.553,0.0925131
0.86,81.4779,-458.807,64.7856,120.578,-177.939,301.114,0.0853929
0.88,83.8176,-458.804,67.1252,116.984,-179.707,-88.3928,0.0778946
0.9,86.0838,-458.801,69.3914,113.309,-183.777,-203.481,0.0703462
0.92,88.2788,-458.798,71.5864,109.751,-177.905,293.576,0.0629732
0.94,90.4023,-458.796,73.7099,106.174,-178.816,-45.5284,0.055947
0.96,92.4537,-458.794,75.7614,102.574,-180.01,-59.7143,0.0493657
0.98,94.4331,-458.793,77.7408,98.9694,-180.237,-11.3603,0.0432751
1,96.3402,-458.791,79.6479,95.355,-180.718,-24.0101,0.0377049
1.02,98.1755,-458.79,81.4832,91.7655,-179.474,62.1662,0.03265
1.04,99.94,-458.789,83.2476,88.2211,-177.224,112.526,0.0281077
1.06,101.633,-458.788,84.9408,84.661,-178.003,-38.9521,0.0240241
1.08,103.25,-458.788,86.5581,80.8611,-189.996,-599.667,0.020413
1.1,104.801,-458.787,88.1084,77.5155,-167.281,1135.76,0.0172071
1.12,106.274,-458.787,89.5818,73.6697,-192.286,-1250.28,0.014399
1.14,107.683,-458.787,90.9902,70.423,-162.339,1497.38,0.0118899
1.16,109.011,-458.786,92.3188,66.4276,-199.767,-1871.4,0.00981153
1.18,110.27,-458.786,93.5774,62.9302,-174.87,1244.84,0.00797586
1.2,111.459,-458.786,94.767,59.483,-172.361,125.477,0.00639885
1.22,112.578,-458.786,95.8858,55.9359,-177.357,-249.817,0.0050873
1.24,113.623,-458.786,96.9305,52.2379,-184.9,-377.15,0.0039614
1.26,114.595,-458.786,97.9023,48.5904,-182.375,126.24,0.00306718
1.28,115.492,-458.786,98.7992,44.842,-187.42,-252.249,0.00232116
1.3,116.314,-458.786,99.622,41.1437,-184.912,125.426,0.00173916
1.32,117.067,-458.786,100.375,37.645,-174.937,498.737,0.00127431
1.34,117.762,-458.786,101.07,34.7459,-144.955,1499.08,0.000892511
1.36,118.359,-458.786,101.667,29.8473,-244.928,-4998.65,0.000644023
1.38,118.895,-458.786,102.203,26.7979,-152.472,4622.78,0.000446598
1.4,119.353,-458.786,102.661,22.8986,-194.965,-2124.64,0.000313672
1.42,119.741,-458.786,103.049,19.3989,-174.985,998.999,0.000208082
1.44,119.931,-458.786,103.239,9.49971,-494.958,-15998.6,0.000180791
1.46,120.121,-458.786,103.429,9.49971,-3.55271e-11,24747.9,0.0001535
1.48,120.311,-458.786,103.619,9.49971,-5.38805e-07,-2.69385e-05,0.000126208
1.5,120.5,-458.786,103.808,9.44971,-2.5,-125,9.89174e-05
1.52,120.69,-458.786,103.998,9.49971,2.5,250,7.16263e-05
