"time","x","y","position","velocity","acceleration","jerk","heading"
0,45.0802,34.8128,0,0,180,0,0
0.02,45.27,34.8128,0.189737,3.6,180,0,-0.00411635
0.04,45.4597,34.8128,0.379473,7.2,180,0,-0.00823269
0.06,45.6494,34.8128,0.56921,10.8,180,0,-0.012349
0.08,45.8392,34.8128,0.758947,14.4,180,0,-0.0164654
0.1,46.0289,34.8127,0.948683,18,180,0,-0.0205817
0.12,46.4144,34.8126,1.33418,21.6,180,0,-0.0387685
0.14,46.8725,34.8123,1.79224,25.2,180,0,-0.0621716
0.16,47.4064,34.8116,2.3262,28.8,180,0,-0.0986962
0.18,48.0034,34.8104,2.92317,32.4,180,0,-0.146112
0.2,48.6972,34.8083,3.61697,36,180,0,-0.218047
0.22,49.4492,34.805,4.36898,39.6,180,0,-0.310229
0.24,50.2712,34.7997,5.19104,43.2,180,0,-0.429875
0.26,51.1672,34.7919,6.08706,46.8,180,0,-0.581425
0.28,52.1379,34.7807,7.05782,50.4,180,0,-0.766691
0.3,53.1827,34.7648,8.10271,54,180,0,-0.989625
0.32,54.3003,34.743,9.22053,57.6,180,0,-1.25622
0.34,55.4892,34.7138,10.4098,61.2,180,0,-1.57039
0.36,56.7476,34.6755,11.6688,64.8,180,0,-1.92792
0.38,58.074,34.6263,12.9961,68.4,180,0,-2.32997
0.4,59.4806,34.5635,14.4042,72,180,0,-2.7936
0.42,60.9521,34.4853,15.8777,75.6,180,0,-3.30169
0.44,62.4989,34.3886,17.4275,79.2,180,0,-3.86253
0.46,64.1116,34.2712,19.0445,82.8,180,0,-4.47196
0.48,65.7995,34.1295,20.7384,86.4,180,0,-5.13061
0.5,67.5559,33.961,22.5028,90,180,0,-5.83343
0.52,69.3806,33.7626,24.3383,93.6,180,0,-6.57616
0.54,71.274,33.5313,26.2457,97.2,180,0,-7.35418
0.56,73.2356,33.2641,28.2255,100.8,180,0,-8.1618
0.58,75.2648,32.958,30.2776,104.4,180,0,-8.99251
0.6,77.3603,32.6104,32.4018,108,180,0,-9.83758
0.62,79.521,32.219,34.5977,111.6,180,0,-10.69
0.64,81.7455,31.7818,36.8648,115.2,180,0,-11.5401
0.66,84.0349,31.2967,39.205,118.8,180,0,-12.3782
0.68,86.3874,30.7625,41.6174,122.4,180,0,-13.1961
0.7,88.8008,30.1788,44.1005,126,180,0,-13.9808
0.72,91.2776,29.5447,46.6572,129.6,180,0,-14.7235
0.74,93.815,28.8611,49.285,133.2,180,0,-15.4132
0.76,96.4129,28.1292,51.9841,136.8,180,0,-16.0356
0.78,99.0739,27.3501,54.7568,140.4,180,0,-16.5782
0.8,101.781,26.5319,57.5853,141.134,-180,0,-17.0265
0.82,104.443,25.7077,60.3719,137.534,-180,0,-17.3534
0.84,107.034,24.8925,63.0873,133.934,-180,0,-17.5564
0.86,109.552,24.0932,65.7294,130.334,-180,0,-17.6357
0.88,112.002,23.3148,68.2999,126.734,-180,0,-17.5869
0.9,114.385,22.5627,70.7988,123.134,-180,0,-17.4161
0.92,116.702,21.8418,73.2253,119.534,-180,0,-17.115
0.94,118.954,21.1567,75.5795,115.934,-180,0,-16.6859
0.96,121.144,20.5111,77.8629,112.334,-180,0,-16.1229
0.98,123.272,19.9093,80.0739,108.734,-180,0,-15.4301
1,125.336,19.355,82.2117,105.134,-180,0,-14.5852
1.02,127.34,18.851,84.278,101.534,-180,0,-13.6002
1.04,129.283,18.4002,86.2726,97.9337,-180,0,-12.4711
1.06,131.165,18.0052,88.1955,94.3337,-180,0,-11.1888
1.08,132.986,17.668,90.0473,90.7337,-180,0,-9.74546
1.1,134.741,17.3908,91.8248,87.1337,-180,0,-8.14099
1.12,136.433,17.1742,93.53,83.5337,-180,0,-6.37959
1.14,138.061,17.0184,95.1659,79.9337,-180,0,-4.47099
1.16,139.62,16.9235,96.7275,76.3337,-180,0,-2.39066
1.18,141.11,16.8883,98.2182,72.7337,-165.686,0,-0.20066
1.2,142.531,16.9106,99.6399,69.7337,-156.381,0,2.11258
1.22,143.896,16.9884,101.007,66.4796,-102.945,0,4.5531
1.24,145.195,17.1193,102.313,64.3116,-118.535,0,7.06881
1.26,146.444,17.3023,103.575,62.0103,-84.5095,0,9.70117
1.28,147.645,17.536,104.799,60.3724,-83.495,0,12.4213
1.3,148.803,17.8197,105.991,58.6915,-39.1995,0,15.1922
1.32,149.92,18.1523,107.156,57.8672,-48.7818,0,18.0461
1.34,151.001,18.5345,108.304,56.9668,-19.1833,0,20.9338
1.36,152.051,18.9667,109.439,56.5882,-9.07515,0,23.8507
1.38,153.073,19.4498,110.569,56.4305,6.49572,0,26.7868
1.4,154.068,19.9847,111.699,56.5696,27.7069,0,29.7169
1.42,155.04,20.5733,112.835,57.1408,28.8011,0,32.6351
1.44,155.99,21.2168,113.984,57.7138,70.8845,0,35.5223
1.46,156.924,21.92,115.153,59.0761,56.965,0,38.3537
1.48,157.842,22.6843,116.347,60.3494,94.319,0,41.1368
1.5,158.745,23.513,117.573,62.2021,101.489,0,43.8495
1.52,159.635,24.4092,118.836,64.2807,131.009,0,46.4555
1.54,160.515,25.3803,120.147,66.8949,131.52,0,49.0177
1.56,161.389,26.4313,121.514,69.721,169.357,0,51.4301
1.58,162.253,27.564,122.939,73.1091,179.356,0,53.7817
1.6,163.116,28.792,124.439,76.7002,180,0,55.9859
1.62,163.968,30.1065,126.006,80.3002,180,0,58.0739
1.64,164.813,31.5173,127.651,83.9002,180,0,60.004
1.66,165.646,33.0151,129.364,87.5002,180,0,61.7858
1.68,166.466,34.6,131.149,91.1002,180,0,63.4171
1.7,167.275,36.2713,133.006,94.7002,180,0,64.8945
1.72,168.073,38.0291,134.936,98.3002,180,0,66.2149
1.74,168.861,39.8693,136.938,101.9,180,0,67.365
1.76,169.642,41.7903,139.012,105.5,180,0,68.3594
1.78,170.418,43.7919,141.159,109.1,180,0,69.1926
1.8,171.192,45.8668,143.373,111.782,-126.546,0,69.8457
1.82,171.943,47.942,145.58,108.661,-180,0,70.3189
1.84,172.657,49.9566,147.718,105.061,-180,0,70.5937
1.86,173.341,51.9056,149.783,101.461,-180,0,70.7036
1.88,173.996,53.7877,151.776,97.8608,-180,0,71.056
1.9,174.609,55.6082,153.697,94.2608,-180,0,71.962
1.92,175.162,57.3721,155.545,90.6608,-180,0,73.3472
1.94,175.647,59.0817,157.323,87.0608,-180,0,75.068
1.96,176.061,60.7383,159.03,83.471,-151.269,0,76.9632
1.98,176.403,62.3399,160.668,80.5793,-93.5951,0,79.0026
2,176.679,63.9098,162.262,78.9595,-38.5631,0,81.076
2.02,176.894,65.4669,163.834,78.3007,-0.201173,0,83.1885
2.04,177.051,67.0257,165.401,78.4204,34.1942,0,85.3044
2.06,177.151,68.5972,166.976,79.2354,51.3727,0,87.4085
2.08,177.194,70.1938,168.573,80.4902,97.7083,0,89.4836
2.1,177.179,71.8222,170.201,82.4772,102.258,0,91.523
2.12,177.105,73.4916,171.872,84.9538,133.956,0,93.5012
2.14,176.97,75.2141,173.6,87.8037,171.805,0,95.4246
2.16,176.771,76.9935,175.391,91.3101,180,0,97.2713
2.18,176.506,78.836,177.252,94.9101,180,0,99.0301
2.2,176.174,80.7409,179.186,98.5101,180,0,100.684
2.22,175.775,82.7068,181.192,102.11,180,0,102.22
2.24,175.309,84.7323,183.271,105.71,180,0,103.624
2.26,174.778,86.8162,185.421,109.31,180,0,104.882
2.28,174.188,88.9494,187.634,110.96,-173.311,0,105.975
2.3,173.57,91.0446,189.819,107.42,-180,0,106.864
2.32,172.944,93.0628,191.932,103.82,-180,0,107.549
2.34,172.319,95.0056,193.973,100.22,-180,0,108.042
2.36,171.704,96.8752,195.941,96.62,-180,0,108.337
2.38,171.105,98.6735,197.836,93.02,-180,0,108.459
2.4,170.527,100.403,199.66,89.42,-180,0,108.416
2.42,169.976,102.066,201.412,85.82,-180,0,108.209
2.44,169.455,103.665,203.094,82.22,-180,0,107.821
2.46,168.969,105.197,204.7,78.62,-180,0,107.247
2.48,168.522,106.667,206.237,75.02,-180,0,106.49
2.5,168.117,108.073,207.701,71.42,-180,0,105.509
2.52,167.757,109.42,209.095,67.82,-180,0,104.32
2.54,167.446,110.7,210.412,64.22,-180,0,102.864
2.56,167.185,111.92,211.66,60.62,-180,0,101.099
2.58,166.976,113.08,212.838,57.02,-180,0,99.0598
2.6,166.822,114.175,213.945,53.42,-180,0,96.7036
2.62,166.725,115.204,214.978,49.82,-180,0,93.9542
2.64,166.684,116.162,215.937,46.22,-180,0,90.7347
2.66,166.697,117.045,216.821,42.62,-154.062,0,86.7342
2.68,166.766,117.859,217.637,39.5231,-143.755,0,82.8655
2.7,166.882,118.609,218.396,36.6349,-122.16,0,78.4241
2.72,167.049,119.302,219.11,33.9721,-87.5139,0,73.4936
2.74,167.257,119.925,219.767,32.1066,-52.9702,0,68.6882
2.76,167.509,120.503,220.397,30.9195,-27.7152,0,63.4003
2.78,167.809,121.04,221.013,30.1189,-7.52847,0,57.849
2.8,168.152,121.532,221.612,29.9591,14.3342,0,52.3799
2.82,168.542,121.991,222.215,30.0574,39.3211,0,46.8664
2.84,168.978,122.411,222.821,30.6265,70.0084,0,41.2721
2.86,169.473,122.802,223.452,31.9093,98.8825,0,36.1163
2.88,170.016,123.157,224.101,33.6169,124.471,0,31.125
2.9,170.634,123.487,224.801,36.0758,135.051,0,26.0221
2.92,171.323,123.785,225.552,38.7512,161.227,0,21.7303
2.94,172.082,124.05,226.356,41.8644,180,0,17.6582
2.96,172.92,124.278,227.225,45.4644,180,0,13.6476
2.98,173.843,124.472,228.169,49.0644,180,0,10.3442
3,174.848,124.628,229.186,52.6644,180,0,7.49251
3.02,175.932,124.745,230.276,56.2644,180,0,5.06655
3.04,177.091,124.823,231.438,59.8644,180,0,2.97983
3.06,178.322,124.866,232.67,63.4644,180,0,1.19379
3.08,179.623,124.874,233.971,67.0644,180,0,-0.272306
3.1,181.004,124.853,235.351,70.6644,180,0,-1.37621
3.12,182.451,124.805,236.799,74.2644,180,0,-2.25272
3.14,183.971,124.737,238.321,77.8644,180,0,-2.75964
3.16,185.56,124.655,239.912,81.4644,180,0,-3.00492
3.18,187.225,124.567,241.579,85.0644,180,0,-3.12045
3.2,188.959,124.469,243.316,88.6644,180,0,-3.37463
3.22,190.763,124.357,245.124,92.2644,180,0,-3.8294
3.24,192.639,124.221,247.004,95.8644,180,0,-4.49384
3.26,194.585,124.054,248.958,99.4644,180,0,-5.37979
3.28,196.594,123.846,250.977,101.87,-174.646,0,-6.52961
3.3,198.58,123.595,252.979,98.3224,-180,0,-7.90038
3.32,200.488,123.306,254.909,94.7224,-180,0,-9.43212
3.34,202.315,122.975,256.767,91.1224,-180,0,-11.143
3.36,204.062,122.603,258.552,87.5224,-180,0,-12.9656
3.38,205.726,122.191,260.267,83.9643,-159.61,0,-14.9042
3.4,207.313,121.739,261.916,80.9327,-115.861,0,-16.9147
3.42,208.83,121.248,263.511,78.7921,-80.5584,0,-18.9898
3.44,210.296,120.713,265.072,77.2619,-47.8038,0,-21.1188
3.46,211.718,120.133,266.608,76.4614,-10.5806,0,-23.2777
3.48,213.11,119.503,268.136,76.362,28.1414,0,-25.4485
3.5,214.482,118.818,269.67,77.0854,72.9273,0,-27.6136
3.52,215.848,118.071,271.226,78.7243,130.401,0,-29.7427
3.54,217.223,117.251,272.827,81.5812,177.277,0,-31.8126
3.56,218.624,116.346,274.496,85.1476,180,0,-33.7838
3.58,220.053,115.356,276.234,88.7476,180,0,-35.5999
3.6,221.508,114.282,278.043,92.3476,180,0,-37.1742
3.62,222.996,113.126,279.926,95.9476,180,0,-38.415
3.64,224.517,111.898,281.881,99.5476,180,0,-39.2894
3.66,226.079,110.607,283.908,103.148,180,0,-39.7606
3.68,227.691,109.263,286.006,106.748,180,0,-39.7878
3.7,229.364,107.878,288.178,110.348,180,0,-39.3533
3.72,231.108,106.467,290.422,113.948,44.0883,0,-38.5137
3.74,232.902,105.068,292.697,112.504,-180,0,-37.3105
3.76,234.679,103.746,294.912,108.904,-180,0,-35.8888
3.78,236.431,102.513,297.055,105.375,-128.381,0,-34.3479
3.8,238.168,101.361,299.139,103.382,-27.7431,0,-32.7558
3.82,239.92,100.269,301.203,103.208,43.4927,0,-31.1494
3.84,241.71,99.2203,303.278,104.494,114.877,0,-29.5522
3.86,243.564,98.2031,305.393,107.093,178.497,0,-27.9837
3.88,245.501,97.2074,307.57,110.679,180,0,-26.4661
3.9,247.526,96.2311,309.819,114.279,180,0,-25.0419
3.92,249.641,95.2734,312.141,117.879,180,0,-23.743
3.94,251.842,94.3322,314.535,121.479,180,0,-22.6147
3.96,254.125,93.4042,316.999,125.079,180,0,-21.6905
3.98,256.49,92.4804,319.538,128.679,180,0,-21.0494
4,258.928,91.5523,322.147,132.279,180,0,-20.7237
4.02,261.436,90.604,324.828,135.879,180,0,-20.7783
4.04,264.01,89.6235,327.582,139.479,180,0,-20.8996
4.06,266.649,88.615,330.408,143.079,180,0,-20.8838
4.08,269.357,87.5851,333.305,146.679,180,0,-20.7237
4.1,272.137,86.5409,336.275,150.279,180,0,-20.4162
4.12,274.992,85.4905,339.316,153.879,180,0,-19.9507
4.14,277.915,84.4465,342.42,155.37,-180,0,-19.321
4.16,280.819,83.4491,345.491,151.77,-180,0,-18.5455
4.18,283.67,82.5168,348.491,148.17,-180,0,-17.6383
4.2,286.468,81.6539,351.418,144.57,-180,0,-16.6169
4.22,289.211,80.8634,354.274,140.97,-180,0,-15.501
4.24,291.902,80.1467,357.058,137.386,-140.676,0,-14.318
4.26,294.546,79.5016,359.779,135.093,-27.58,0,-13.0989
4.28,297.183,78.9177,362.48,135.417,128.412,0,-11.8718
4.3,299.867,78.3833,365.218,138.574,180,0,-10.6614
4.32,302.63,77.8923,368.024,141.956,-180,0,-9.51917
4.34,305.398,77.4532,370.826,138.356,-180,0,-8.55591
4.36,308.101,77.0653,373.557,134.756,-180,0,-7.83247
4.38,310.737,76.7149,376.216,131.156,-180,0,-7.36955
4.4,313.303,76.3889,378.803,127.556,-180,0,-7.16498
4.42,315.798,76.076,381.318,123.956,-180,0,-7.17813
4.44,318.222,75.7672,383.761,120.356,-180,0,-7.38175
4.46,320.573,75.4563,386.133,116.756,-180,0,-7.72069
4.48,322.849,75.1394,388.431,113.156,-180,0,-8.15499
4.5,325.053,74.8143,390.658,109.556,-180,0,-8.64959
4.52,327.182,74.4806,392.814,105.956,-180,0,-9.17247
4.54,329.238,74.139,394.897,102.356,-180,0,-9.70145
4.56,331.218,73.7911,396.908,98.7557,-180,0,-10.2207
4.58,333.125,73.4388,398.847,95.1557,-180,0,-10.7179
4.6,334.957,73.0842,400.713,91.5557,-180,0,-11.1864
4.62,336.716,72.7293,402.507,87.9557,-180,0,-11.6216
4.64,338.403,72.3761,404.231,84.3557,-180,0,-12.0211
4.66,340.018,72.0268,405.883,80.7557,-180,0,-12.3854
4.68,341.557,71.6841,407.46,77.1557,-180,0,-12.7125
4.7,343.029,71.3478,408.97,73.5557,-180,0,-13.0062
4.72,344.423,71.0224,410.402,69.9557,-180,0,-13.2665
4.74,345.75,70.7066,411.765,66.3557,-180,0,-13.4953
4.76,347.007,70.4025,413.059,62.7557,-180,0,-13.6947
4.78,348.187,70.1129,414.274,59.1557,-180,0,-13.8667
4.8,349.298,69.8369,415.419,55.5557,-180,0,-14.0138
4.82,350.34,69.5756,416.493,51.9557,-180,0,-14.1394
4.84,351.311,69.3299,417.495,48.3557,-180,0,-14.2439
4.86,352.212,69.1004,418.425,44.7557,-180,0,-14.3309
4.88,353.044,68.8872,419.284,41.1557,-180,0,-14.4029
4.9,353.813,68.6895,420.077,37.5557,-180,0,-14.4574
4.92,354.498,68.5123,420.785,33.9557,-180,0,-14.5038
4.94,355.109,68.3541,421.416,30.3557,-180,0,-14.5355
4.96,355.684,68.2049,422.01,26.7557,-180,0,-14.5607
4.98,356.127,68.0896,422.468,23.1557,-180,0,-14.5773
5,356.57,67.9742,422.926,19.5557,-180,0,-14.5939
5.02,356.796,67.9155,423.159,15.9557,-180,0,-14.5989
5.04,356.979,67.8676,423.349,12.3557,-180,0,-14.6017
5.06,357.163,67.8198,423.538,8.75568,-180,0,-14.6045
5.08,357.347,67.7719,423.728,5.15568,-180,0,-14.6073
5.1,357.53,67.724,423.918,1.55568,-180,0,-14.6101
