"time","x","y","position","velocity","acceleration","jerk","heading"
0,38.9536,141.618,0,0,0,0,-37.0928
0.02,39.1039,141.503,0.18886,9.44301,472.15,23607.5,-37.0969
0.04,39.2544,141.39,0.377197,9.41683,-1.30894,-23673,-37.101
0.06,39.4048,141.277,0.565453,9.41284,-0.199692,55.4623,-37.1051
0.08,39.5551,141.163,0.754285,9.44156,1.43645,81.807,-37.1093
0.1,39.7054,141.049,0.942541,9.41284,-1.43645,-143.645,-37.1134
0.12,40.0083,140.82,1.32252,18.999,479.307,24037.2,-37.1333
0.14,40.3675,140.547,1.77344,22.5459,177.346,-15098.1,-37.1591
0.16,40.7836,140.232,2.29526,26.0913,177.269,-3.85469,-37.1999
0.18,41.2468,139.881,2.87683,29.0785,149.364,-1395.24,-37.2531
0.2,41.7802,139.474,3.54761,33.5389,223.019,3682.78,-37.3343
0.22,42.3545,139.036,4.26998,36.1186,128.984,-4701.8,-37.4359
0.24,42.9747,138.56,5.05143,39.0723,147.687,935.165,-37.5646
0.26,43.6321,138.053,5.88156,41.5063,121.696,-1299.52,-37.7239
0.28,44.3003,137.535,6.72758,42.3009,39.7339,-4098.13,-37.9113
0.3,44.9613,137.018,7.56634,41.9381,-18.1429,-2893.84,-38.1229
0.32,45.6152,136.503,8.39881,41.6236,-15.7215,121.07,-38.3567
0.34,46.2617,135.989,9.22464,41.2916,-16.6006,-43.9553,-38.6137
0.36,46.9008,135.476,10.0446,40.9978,-14.6932,95.3676,-38.8924
0.38,47.5328,134.963,10.8583,40.6828,-15.7491,-52.7932,-39.1919
0.4,48.1573,134.452,11.6655,40.3629,-15.994,-12.2472,-39.5118
0.42,48.7741,133.94,12.467,40.0756,-14.3652,81.442,-39.8538
0.44,49.3828,133.428,13.262,39.7504,-16.2582,-94.6486,-40.2179
0.46,49.9865,132.915,14.0546,39.6305,-5.99624,513.096,-40.5892
0.48,50.5809,132.402,14.8397,39.2539,-18.8328,-641.829,-40.9876
0.5,51.1703,131.887,15.6224,39.1326,-6.06267,638.508,-41.3925
0.52,51.7518,131.37,16.4003,38.8977,-11.747,-284.215,-41.8165
0.54,52.3282,130.851,17.1759,38.7787,-5.94672,290.013,-42.2461
0.56,52.8992,130.328,17.9502,38.7142,-3.22515,136.079,-42.6826
0.58,53.4656,129.802,18.7236,38.6713,-2.14656,53.9292,-43.1216
0.6,54.0288,129.271,19.4975,38.6964,1.25442,170.049,-43.5567
0.62,54.5897,128.733,20.2746,38.8547,7.91717,333.137,-43.9831
0.64,55.1495,128.189,21.0552,39.0274,8.63153,35.7181,-44.3957
0.66,55.7106,127.636,21.8432,39.403,18.7822,507.533,-44.7933
0.68,56.2987,127.047,22.6752,41.5963,109.663,4544.06,-45.1638
0.7,56.9351,126.403,23.5808,45.2812,184.246,3729.12,-45.537
0.72,57.6303,125.689,24.577,49.8098,226.432,2109.29,-45.8539
0.74,58.3822,124.91,25.6596,54.1315,216.084,-517.368,-46.1191
0.76,59.1969,124.06,26.8375,58.8917,238.012,1096.38,-46.2986
0.78,60.0805,123.133,28.1179,64.0204,256.431,920.977,-46.3624
0.8,61.0404,122.127,29.5087,69.5441,276.186,987.735,-46.2976
0.82,62.0853,121.036,31.0193,75.5277,299.179,1149.62,-46.0775
0.84,63.2117,119.873,32.6384,80.9532,271.277,-1395.1,-45.7157
0.86,64.4259,118.638,34.3703,86.5958,282.13,542.671,-45.2251
0.88,65.7239,117.343,36.2037,91.6688,253.652,-1423.9,-44.6278
0.9,67.0988,116,38.1254,96.0858,220.85,-1640.1,-43.9701
0.92,68.5478,114.619,40.127,100.079,199.67,-1059,-43.2882
0.94,70.0622,113.21,42.1956,103.431,167.57,-1605.01,-42.6266
0.96,71.6324,111.781,44.3188,106.161,136.496,-1553.71,-42.0238
0.98,73.2512,110.336,46.4888,108.503,117.118,-968.881,-41.5079
1,74.9079,108.881,48.6939,110.256,87.6401,-1473.9,-41.1182
1.02,76.5944,107.416,50.9276,111.682,71.3111,-816.45,-40.8775
1.04,78.3006,105.942,53.1822,112.731,52.4553,-942.786,-40.8202
1.06,80.0138,104.46,55.4476,113.268,26.8309,-1281.22,-40.9728
1.08,81.7167,102.972,57.709,113.073,-9.73079,-1828.08,-41.3828
1.1,83.3865,101.483,59.9467,111.882,-59.5726,-2492.09,-42.1343
1.12,85.0192,99.9825,62.1638,110.857,-51.2447,416.398,-43.0859
1.14,86.5277,98.5433,64.2487,104.246,-330.512,-13963.4,-44.2931
1.16,87.923,97.1506,66.2201,98.5698,-283.83,2334.07,-45.6473
1.18,89.2171,95.7939,68.095,93.7467,-241.157,2133.65,-47.0939
1.2,90.4333,94.4506,69.9071,90.6004,-157.315,4192.13,-48.574
1.22,91.6063,93.0863,71.7063,89.9628,-31.8786,6271.81,-50.0616
1.24,92.7662,91.6637,73.5418,91.7763,90.6756,6127.71,-51.5251
1.26,93.9037,90.1961,75.3987,92.8409,53.2294,-1872.31,-52.89
1.28,95.0026,88.7112,77.246,92.3666,-23.7168,-3847.31,-54.0428
1.3,96.0739,87.2083,79.0916,92.28,-4.33004,969.337,-54.9535
1.32,97.1281,85.6849,80.9442,92.6295,17.4746,1090.23,-55.5904
1.34,98.1781,84.1395,82.8126,93.4203,39.5406,1103.3,-55.9231
1.36,99.2391,82.569,84.7079,94.7635,67.1599,1380.97,-55.9167
1.38,100.321,80.9782,86.6316,96.1864,71.1438,199.196,-55.5623
1.4,101.436,79.3707,88.5883,97.8364,82.5009,567.856,-54.8357
1.42,102.594,77.7555,90.5757,99.367,76.5328,-298.403,-53.7565
1.44,103.814,76.1312,92.6068,101.56,109.642,1655.44,-52.29
1.46,105.085,74.5353,94.6468,102,21.9926,-4382.45,-50.5207
1.48,106.414,72.975,96.6965,102.483,24.1519,107.968,-48.4933
1.5,107.809,71.4583,98.7577,103.06,28.838,234.302,-46.149
1.52,109.252,70.0171,100.797,101.971,-54.4022,-4162.01,-43.6456
1.54,110.733,68.6653,102.802,100.256,-85.7539,-1567.58,-41.0494
1.56,112.282,67.3807,104.814,100.588,16.6043,5117.91,-38.2589
1.58,113.866,66.1913,106.796,99.0763,-75.6113,-4610.78,-35.4586
1.6,115.512,65.0797,108.782,99.3067,11.5233,4356.73,-32.5793
1.62,117.206,64.0562,110.761,98.9602,-17.3245,-1442.39,-29.6977
1.64,118.953,63.1183,112.743,99.1198,7.97751,1265.1,-26.8173
1.66,120.744,62.2683,114.726,99.1424,1.12976,-342.388,-23.9742
1.68,122.586,61.5036,116.72,99.7174,28.7508,1381.05,-21.1835
1.7,124.475,60.8237,118.728,100.354,31.8355,154.239,-18.4682
1.72,126.415,60.2268,120.758,101.503,57.4261,1279.53,-15.8317
1.74,128.398,59.7123,122.806,102.424,46.0659,-568.012,-13.3235
1.76,130.432,59.2758,124.887,104.031,80.3535,1714.38,-10.9662
1.78,132.504,58.9167,126.989,105.13,54.9389,-1270.73,-8.76633
1.8,134.601,58.6317,129.106,105.832,35.1232,-990.784,-6.77243
1.82,136.711,58.4154,131.227,106.029,9.83009,-1264.66,-5.00524
1.84,138.831,58.2594,133.352,106.288,12.9761,157.301,-3.48732
1.86,140.955,58.1555,135.479,106.356,3.3922,-479.195,-2.20217
1.88,143.076,58.0943,137.601,106.057,-14.9818,-918.701,-1.1895
1.9,145.163,58.0654,139.688,104.383,-83.6949,-3435.66,-0.481283
1.92,147.129,58.057,141.654,98.2806,-305.104,-11070.5,-0.0809103
1.94,148.946,58.0564,143.471,90.8784,-370.111,-3250.33,0.0665254
1.96,150.761,58.0623,145.286,90.717,-8.06821,18102.1,0.448667
1.98,152.628,58.0879,147.154,93.3943,133.864,7096.61,1.25477
2,154.522,58.1465,149.048,94.7277,66.6675,-3359.82,2.41791
2.02,156.448,58.2515,150.977,96.4519,86.2136,977.302,3.93796
2.04,158.393,58.4148,152.928,97.5636,55.5821,-1531.57,5.79575
2.06,160.333,58.6459,154.883,97.719,7.77306,-2390.45,7.89821
2.08,162.292,58.959,156.866,99.169,72.4963,3236.16,10.3628
2.1,164.236,59.3606,158.852,99.2699,5.0468,-3372.48,13.0917
2.12,166.148,59.8546,160.827,98.7499,-26.0023,-1552.45,16.0235
2.14,168.019,60.4451,162.788,98.0908,-32.953,-347.535,19.137
2.16,169.847,61.1372,164.743,97.7308,-18.0003,747.631,22.4196
2.18,171.634,61.9364,166.7,97.8663,6.77712,1238.87,25.8615
2.2,173.375,62.847,168.665,98.2296,18.163,569.293,29.443
2.22,175.057,63.8688,170.634,98.4305,10.0449,-405.901,33.1264
2.24,176.672,64.9986,172.604,98.5262,4.78509,-262.993,36.871
2.26,178.209,66.2324,174.575,98.5397,0.675278,-205.491,40.6461
2.28,179.66,67.5645,176.545,98.5103,-1.47058,-107.293,44.4195
2.3,181.02,68.9866,178.513,98.3784,-6.59418,-256.18,48.1478
2.32,182.282,70.4904,180.476,98.1531,-11.267,-233.64,51.7981
2.34,183.444,72.0681,182.436,97.9887,-8.2178,152.459,55.3429
2.36,184.508,73.7122,184.394,97.9199,-3.44232,238.774,58.7569
2.38,185.476,75.4179,186.355,98.0456,6.28613,486.422,62.0187
2.4,186.351,77.1835,188.326,98.5377,24.6055,915.97,65.1122
2.42,187.138,79.0038,190.309,99.1484,30.5377,296.609,68.0167
2.44,187.837,80.8596,192.292,99.1557,0.362178,-1508.78,70.6491
2.46,188.448,82.7254,194.255,98.1663,-49.4701,-2491.62,72.9684
2.48,188.985,84.6081,196.213,97.8949,-13.5693,1795.04,75.0342
2.5,189.458,86.4993,198.162,97.4675,-21.3696,-390.013,76.8079
2.52,189.871,88.3799,200.088,96.2723,-59.7594,-1919.49,78.2565
2.54,190.24,90.2566,202,95.6329,-31.9699,1389.47,79.4049
2.56,190.574,92.1287,203.902,95.0785,-27.7203,212.48,80.2786
2.58,190.881,93.9832,205.782,93.9909,-54.3802,-1333,80.8107
2.6,191.175,95.8297,207.651,93.4855,-25.2686,1455.58,81.063
2.62,191.46,97.6545,209.498,92.348,-56.8764,-1580.39,80.9905
2.64,191.751,99.4547,211.322,91.1736,-58.718,-92.0769,80.5877
2.66,192.052,101.21,213.102,89.0247,-107.446,-2436.42,79.8527
2.68,192.355,102.831,214.752,82.4808,-327.197,-10987.6,78.7935
2.7,192.663,104.306,216.258,75.3222,-357.929,-1536.6,77.4859
2.72,192.976,105.636,217.625,68.3536,-348.428,475.058,75.9409
2.74,193.292,106.824,218.855,61.4562,-344.871,177.852,74.1801
2.76,193.612,107.889,219.967,55.6078,-292.421,2622.52,72.2596
2.78,193.933,108.838,220.968,50.0639,-277.195,761.319,70.1908
2.8,194.25,109.672,221.861,44.6247,-271.961,261.658,68.0143
2.82,194.57,110.423,222.676,40.7905,-191.708,4012.66,65.7575
2.84,194.887,111.09,223.415,36.9495,-192.049,-17.0563,63.4088
2.86,195.209,111.704,224.109,34.689,-113.024,3951.25,61.0212
2.88,195.536,112.267,224.76,32.5397,-107.468,277.819,58.5708
2.9,195.874,112.794,225.386,31.3049,-61.7392,2286.44,56.0986
2.92,196.23,113.299,226.004,30.9048,-20.0013,2086.9,53.6133
2.94,196.61,113.792,226.626,31.0831,8.91404,1445.77,51.1358
2.96,197.023,114.282,227.267,32.058,48.7446,1991.53,48.6786
2.98,197.48,114.78,227.943,33.7995,87.0751,1916.53,46.2617
3,198.002,115.302,228.681,36.9219,156.119,3452.17,43.9234
3.02,198.596,115.852,229.491,40.4738,177.596,1073.86,41.6437
3.04,199.301,116.453,230.418,46.3335,292.986,5769.53,39.5272
3.06,200.116,117.1,231.458,52.021,284.374,-430.627,37.5646
3.08,201.084,117.821,232.664,60.3242,415.161,6539.35,35.912
3.1,202.202,118.608,234.032,68.365,402.041,-655.998,34.5775
3.12,203.506,119.489,235.606,78.71,517.249,5760.42,33.7117
3.14,205.001,120.476,237.397,89.5443,541.713,1223.17,33.3448
3.16,206.633,121.548,239.349,97.6259,404.079,-6881.67,33.2898
3.18,208.306,122.644,241.349,99.9997,118.694,-14269.3,33.1446
3.2,210.018,123.758,243.392,102.136,106.819,-593.768,32.8974
3.22,211.77,124.884,245.475,104.129,99.6335,-359.249,32.5407
3.24,213.561,126.017,247.594,105.964,91.7459,-394.383,32.0641
3.26,215.39,127.15,249.746,107.612,82.4201,-466.288,31.4554
3.28,217.261,128.277,251.93,109.177,78.2271,-209.653,30.6963
3.3,219.166,129.39,254.136,110.322,57.2459,-1049.06,29.7795
3.32,221.054,130.448,256.3,108.204,-105.876,-8156.08,28.7122
3.34,222.87,131.418,258.359,102.951,-262.644,-7838.43,27.5212
3.36,224.616,132.305,260.317,97.9072,-252.198,522.32,26.2285
3.38,226.289,133.105,262.172,92.7391,-258.403,-310.258,24.8323
3.4,227.893,133.823,263.929,87.856,-244.157,712.321,23.3477
3.42,229.43,134.462,265.594,83.2444,-230.579,678.904,21.7884
3.44,230.903,135.028,267.171,78.8603,-219.209,568.484,20.1685
3.46,232.319,135.526,268.673,75.0949,-188.27,1546.95,18.4977
3.48,233.693,135.963,270.115,72.1,-149.741,1926.45,16.7862
3.5,235.037,136.346,271.512,69.8542,-112.293,1872.4,15.0415
3.52,236.361,136.68,272.878,68.2905,-78.1844,1705.43,13.2743
3.54,237.68,136.97,274.228,67.5085,-39.0999,1954.22,11.4965
3.56,239.008,137.219,275.58,67.5646,2.80298,2095.15,9.71781
3.58,240.361,137.43,276.949,68.4752,45.53,2136.35,7.95527
3.6,241.759,137.603,278.358,70.4286,97.6721,2607.1,6.22016
3.62,243.223,137.74,279.828,73.5071,153.924,2812.6,4.52496
3.64,244.772,137.84,281.38,77.5864,203.966,2502.08,2.89546
3.66,246.425,137.9,283.034,82.7002,255.691,2586.27,1.37695
3.68,248.192,137.921,284.801,88.3576,282.868,1358.85,-0.00501519
3.7,250.082,137.899,286.691,94.5173,307.988,1255.98,-1.2131
3.72,252.101,137.837,288.711,101.002,324.234,812.328,-2.21772
3.74,254.254,137.737,290.867,107.771,338.464,711.505,-2.99743
3.76,256.553,137.605,293.169,115.124,367.645,1459.06,-3.52586
3.78,258.988,137.447,295.609,122.006,344.07,-1178.78,-3.81734
3.8,261.569,137.273,298.196,129.343,366.889,1140.98,-3.85901
3.82,264.237,137.096,300.87,133.715,218.567,-7416.09,-3.68058
3.84,266.895,136.932,303.533,133.142,-28.6137,-12359.1,-3.32373
3.86,269.519,136.79,306.161,131.393,-87.4653,-2942.58,-2.83469
3.88,272.099,136.675,308.743,129.115,-113.928,-1323.15,-2.25309
3.9,274.627,136.589,311.273,126.488,-131.32,-869.572,-1.61095
3.92,277.091,136.535,313.738,123.24,-162.422,-1555.1,-0.934708
3.94,279.488,136.51,316.134,119.825,-170.725,-415.177,-0.247589
3.96,281.811,136.513,318.458,116.197,-181.41,-534.246,0.434522
3.98,284.058,136.544,320.705,112.35,-192.328,-545.883,1.0989
4,286.224,136.597,322.872,108.333,-200.885,-427.842,1.73637
4.02,288.308,136.671,324.957,104.267,-203.304,-120.962,2.33946
4.04,290.307,136.763,326.958,100.045,-211.063,-387.968,2.90398
4.06,292.224,136.869,328.878,95.9963,-202.458,430.268,3.4277
4.08,294.055,136.986,330.712,91.7127,-214.178,-586.013,3.90848
4.1,295.796,137.112,332.458,87.3052,-220.377,-309.945,4.34445
4.12,297.459,137.244,334.127,83.4146,-194.526,1292.55,4.74074
4.14,299.03,137.38,335.704,78.8469,-228.387,-1693.04,5.09216
4.16,300.525,137.517,337.205,75.0481,-189.94,1922.33,5.40751
4.18,301.93,137.653,338.616,70.5638,-224.215,-1713.72,5.68152
4.2,303.253,137.788,339.946,66.5211,-202.134,1104.04,5.9202
4.22,304.497,137.919,341.197,62.5478,-198.667,173.358,6.12587
4.24,305.662,138.046,342.369,58.5625,-199.264,-29.8687,6.30109
4.26,306.745,138.167,343.458,54.4918,-203.536,-213.574,6.44792
4.28,307.746,138.281,344.467,50.4064,-204.269,-36.6843,6.56877
4.3,308.668,138.388,345.395,46.4117,-199.736,226.681,6.66646
4.32,309.51,138.488,346.242,42.358,-202.683,-147.388,6.74417
4.34,310.278,138.579,347.016,38.6996,-182.923,988.003,6.8056
4.36,310.986,138.664,347.729,35.6584,-152.058,1543.25,6.85486
4.38,311.588,138.736,348.335,30.2735,-269.245,-5859.35,6.88682
4.4,312.131,138.802,348.882,27.3611,-145.618,6181.38,6.91209
4.42,312.59,138.857,349.345,23.1425,-210.93,-3265.61,6.92781
4.44,312.987,138.906,349.744,19.9785,-158.202,2636.38,6.94045
4.46,313.177,138.929,349.935,9.55234,-521.308,-18155.3,6.94271
4.48,313.365,138.952,350.125,9.50257,-2.48881,25940.9,6.94496
4.5,313.555,138.975,350.316,9.55234,2.48881,248.881,6.94722
4.52,313.744,138.998,350.506,9.50271,-2.4816,-248.52,6.94948
4.54,313.932,139.021,350.696,9.50271,2.85074e-08,124.08,6.95174
