"time","x","y","position","velocity","acceleration","jerk","heading"
0,38.9536,141.618,0,0,0,0,-37.0928
0.02,39.1039,141.503,0.18886,9.44301,472.15,23607.5,-37.0969
0.04,39.2544,141.39,0.377197,9.41683,-1.30894,-23673,-37.101
0.06,39.4048,141.277,0.565482,9.41428,-0.127512,59.0713,-37.105
0.08,39.5551,141.163,0.754342,9.44301,1.43645,78.198,-37.1091
0.1,39.7055,141.049,0.942628,9.41428,-1.43645,-143.645,-37.1131
0.12,40.0084,140.82,1.32264,19.0004,479.307,24037.2,-37.1329
0.14,40.3677,140.547,1.77364,22.5502,177.49,-15090.8,-37.1584
0.16,40.7839,140.232,2.29558,26.097,177.341,-7.46374,-37.1988
0.18,41.2472,139.88,2.8773,29.0858,149.436,-1395.24,-37.2515
0.2,41.7807,139.473,3.54833,33.5519,223.308,3693.61,-37.3318
0.22,42.3553,139.035,4.271,36.133,129.056,-4712.62,-37.4324
0.24,42.9782,138.558,5.05592,39.2464,155.671,1330.76,-37.5604
0.26,43.6508,138.039,5.90514,42.4607,160.713,252.13,-37.7223
0.28,44.3717,137.479,6.81814,45.65,159.462,-62.5854,-37.9241
0.3,45.1384,136.879,7.79168,48.677,151.352,-405.501,-38.1714
0.32,45.9477,136.239,8.82316,51.5743,144.866,-324.299,-38.4702
0.34,46.7963,135.562,9.90919,54.3015,136.362,-425.19,-38.8264
0.36,47.6811,134.844,11.0483,56.9564,132.742,-180.977,-39.2422
0.38,48.5988,134.088,12.2373,59.4512,124.742,-400.004,-39.7214
0.4,49.5524,133.288,13.482,62.232,139.037,714.725,-40.2874
0.42,50.5337,132.448,14.7737,64.587,117.751,-1064.28,-40.9157
0.44,51.5463,131.56,16.1206,67.346,137.949,1009.88,-41.6182
0.46,52.5835,130.626,17.5163,69.7817,121.787,-808.074,-42.3853
0.48,53.6521,129.637,18.9728,72.8237,152.099,1515.6,-43.2077
0.5,54.7545,128.585,20.4963,76.1765,167.637,776.898,-44.0431
0.52,55.8983,127.463,22.0986,80.1146,196.905,1463.37,-44.8492
0.54,57.0982,126.252,23.803,85.2192,255.23,2916.27,-45.5547
0.56,58.3741,124.939,25.6345,91.5761,317.846,3130.81,-46.0669
0.58,59.7446,123.507,27.616,99.0737,374.879,2851.64,-46.3112
0.6,61.225,121.956,29.7603,107.218,407.2,1616.04,-46.2425
0.62,62.827,120.292,32.0702,115.493,413.745,327.266,-45.8478
0.64,64.5489,118.538,34.5285,122.915,371.138,-2130.35,-45.185
0.66,66.383,116.718,37.112,129.177,313.081,-2902.84,-44.3414
0.68,68.3099,114.864,39.786,133.7,226.152,-4346.46,-43.437
0.7,70.3089,113.001,42.5188,136.64,147.022,-3956.5,-42.5717
0.72,72.3626,111.14,45.2899,138.552,95.5704,-2572.59,-41.8276
0.74,74.4514,109.291,48.0797,139.491,46.9735,-2429.84,-41.2666
0.76,76.5586,107.454,50.8754,139.787,14.8025,-1608.55,-40.9331
0.78,78.6479,105.646,53.638,138.127,-83.026,-4891.43,-40.878
0.8,80.6273,103.927,56.2598,131.09,-351.856,-13441.5,-41.12
0.82,82.4703,102.305,58.7148,122.751,-416.913,-3252.86,-41.6913
0.84,84.1754,100.764,61.0133,114.924,-391.379,1276.71,-42.552
0.86,85.7615,99.2829,63.1832,108.496,-321.418,3498.06,-43.6128
0.88,87.2182,97.8648,65.2161,101.648,-342.39,-1048.61,-44.8929
0.9,88.5674,96.489,67.1432,96.3519,-264.793,3879.84,-46.2946
0.92,89.8231,95.1414,68.9851,92.0961,-212.787,2600.29,-47.7595
0.94,91.0167,93.7929,70.7859,90.0425,-102.682,5505.28,-49.2463
0.96,92.1808,92.4054,72.5971,90.5591,25.831,6425.63,-50.7272
0.98,93.3349,90.9569,74.4491,92.6009,102.088,3812.86,-52.1603
1,94.4527,89.4826,76.2993,92.5089,-4.59904,-5334.37,-53.4387
1.02,95.5361,87.9915,78.1425,92.1587,-17.5128,-645.689,-54.4844
1.04,96.5969,86.481,79.9883,92.2888,6.50834,1201.06,-55.2742
1.06,97.6479,84.949,81.8461,92.8911,30.112,1180.18,-55.776
1.08,98.7006,83.3936,83.7243,93.9086,50.8796,1038.38,-55.957
1.1,99.7693,81.8142,85.6312,95.3461,71.8732,1049.68,-55.7924
1.12,100.865,80.2157,87.5691,96.8942,77.4041,276.541,-55.2627
1.14,101.999,78.6046,89.5393,98.5098,80.7785,168.722,-54.3728
1.16,103.181,76.9884,91.5419,100.13,80.9913,10.6376,-53.1287
1.18,104.423,75.3756,93.5776,101.788,82.9332,97.095,-51.5124
1.2,105.726,73.7887,95.6304,102.638,42.4779,-2022.76,-49.5924
1.22,107.086,72.2465,97.6869,102.825,9.36205,-1655.79,-47.4052
1.24,108.497,70.7713,99.7282,102.066,-37.9739,-2366.8,-45.0376
1.26,109.965,69.3647,101.761,101.647,-20.9207,852.659,-42.4305
1.28,111.474,68.0464,103.765,100.192,-72.77,-2592.46,-39.7461
1.3,113.037,66.8089,105.758,99.6654,-26.3171,2322.65,-36.9647
1.32,114.654,65.6523,107.747,99.4315,-11.6983,730.938,-34.1056
1.34,116.32,64.5839,109.726,98.9645,-23.3483,-582.501,-31.2327
1.36,118.04,63.6002,111.707,99.0411,3.8304,1358.94,-28.342
1.38,119.807,62.7034,113.689,99.1088,3.386,-22.2198,-25.4764
1.4,121.623,61.8937,115.677,99.3969,14.4023,550.816,-22.6554
1.42,123.484,61.1699,117.674,99.8621,23.2617,442.967,-19.8992
1.44,125.399,60.529,119.694,100.968,55.3148,1602.66,-17.1956
1.46,127.358,59.9715,121.73,101.833,43.2218,-604.648,-14.6316
1.48,129.366,59.494,123.794,103.198,68.2838,1253.1,-12.1924
1.5,131.418,59.095,125.884,104.488,64.4894,-189.717,-9.89381
1.52,133.504,58.7715,127.995,105.55,53.0924,-569.851,-7.79383
1.54,135.607,58.5201,130.114,105.936,19.3075,-1689.25,-5.90036
1.56,137.721,58.3337,132.235,106.071,6.71149,-629.798,-4.25489
1.58,139.843,58.2037,134.362,106.33,12.9698,312.914,-2.8438
1.6,141.968,58.1214,136.488,106.292,-1.87872,-742.424,-1.67824
1.62,144.076,58.077,138.596,105.431,-43.053,-2058.72,-0.811595
1.64,146.108,58.0597,140.629,101.61,-191.052,-7399.96,-0.25002
1.66,147.974,58.0564,142.494,93.2921,-415.907,-11242.7,-0.0254458
1.68,149.778,58.0579,144.298,90.204,-154.406,13075,0.238058
1.7,151.631,58.0735,146.152,92.6822,123.909,13915.7,0.912026
1.72,153.544,58.1205,148.066,95.6722,149.503,1279.71,2.04801
1.74,155.503,58.2146,150.027,98.0712,119.948,-1477.73,3.59871
1.76,157.482,58.3693,152.011,99.2177,57.3251,-3131.17,5.47957
1.78,159.472,58.5967,154.015,100.17,47.6403,-484.24,7.66733
1.8,161.463,58.9069,156.03,100.74,28.4924,-957.396,10.163
1.82,163.416,59.302,158.022,99.6428,-54.8756,-4168.4,12.8186
1.84,165.348,59.7911,160.015,99.6323,-0.528118,2717.38,15.6981
1.86,167.238,60.3751,161.993,98.8906,-37.0814,-1827.67,18.7248
1.88,169.076,61.0533,163.952,97.9726,-45.9034,-441.097,21.8466
1.9,170.868,61.83,165.906,97.6636,-15.4511,1522.61,25.0646
1.92,172.623,62.7137,167.871,98.2525,29.4497,2245.04,28.4086
1.94,174.318,63.6959,169.83,97.9544,-14.9079,-2217.88,31.7883
1.96,175.95,64.7751,171.786,97.8254,-6.44696,423.046,35.1856
1.98,177.516,65.9508,173.745,97.9142,4.43814,544.255,38.5903
2,179.012,67.2186,175.705,98.0269,5.63519,59.8526,41.9753
2.02,180.426,68.5674,177.659,97.7142,-15.6339,-1063.46,45.2879
2.04,181.761,69.9966,179.615,97.7897,3.77326,970.359,48.5286
2.06,183.022,71.5067,181.582,98.3591,28.4699,1234.83,51.6978
2.08,184.205,73.0917,183.56,98.895,26.7965,-83.6708,54.7661
2.1,185.301,74.7291,185.53,98.5077,-19.3676,-2308.21,57.6344
2.12,186.328,76.4456,187.531,100.028,76.0382,4770.29,60.4037
2.14,187.287,78.2317,189.558,101.372,67.1766,-443.083,63.0302
2.16,188.172,80.0672,191.596,101.868,24.8064,-2118.51,65.4547
2.18,188.991,81.9621,193.66,103.214,67.2897,2124.16,67.6935
2.2,189.738,83.884,195.722,103.102,-5.58514,-3643.74,69.6987
2.22,190.426,85.8454,197.801,103.937,41.7556,2367.04,71.4961
2.24,191.057,87.8244,199.878,103.857,-4.00237,-2287.9,73.0539
2.26,191.641,89.8283,201.965,104.356,24.9379,1447.01,74.3841
2.28,192.184,91.8497,204.058,104.652,14.778,-507.991,75.4865
2.3,192.692,93.8839,206.155,104.834,9.11565,-283.12,76.3563
2.32,193.174,95.9263,208.253,104.935,5.04058,-203.753,76.9832
2.34,193.639,97.9752,210.354,105.043,5.39356,17.649,77.3673
2.36,194.093,100.018,212.447,104.637,-20.2885,-1284.1,77.4913
2.38,194.527,101.975,214.452,100.232,-220.245,-9997.84,77.3421
2.4,194.939,103.785,216.308,92.8129,-370.948,-7535.15,76.9227
2.42,195.335,105.454,218.023,85.7471,-353.293,882.765,76.2627
2.44,195.72,106.981,219.598,78.7637,-349.17,206.133,75.3647
2.46,196.096,108.37,221.037,71.9558,-340.394,438.795,74.2451
2.48,196.462,109.615,222.335,64.8793,-353.823,-671.443,72.8945
2.5,196.815,110.718,223.493,57.897,-349.114,235.448,71.2991
2.52,197.158,111.686,224.52,51.3474,-327.484,1081.54,69.5045
2.54,197.481,112.507,225.402,44.1141,-361.663,-1708.95,67.4579
2.56,197.782,113.201,226.159,37.8312,-314.145,2375.9,65.2266
2.58,198.054,113.763,226.783,31.2264,-330.241,-804.794,62.7718
2.6,198.293,114.204,227.285,25.0663,-308.007,1111.65,60.1623
2.62,198.494,114.539,227.675,19.5025,-278.19,1490.88,57.3841
2.64,198.652,114.777,227.96,14.2883,-260.708,874.089,54.4359
2.66,198.778,114.946,228.171,10.5487,-186.982,3686.31,51.3972
2.68,198.867,115.053,228.311,6.99289,-177.788,459.673,48.2483
2.7,198.919,115.109,228.387,3.81347,-158.971,940.879,44.9789
2.72,198.943,115.133,228.421,1.68499,-106.424,2627.34,41.6429
2.74,198.95,115.138,228.43,0.431455,-62.6768,2187.37,38.2696
2.76,198.945,115.135,228.435,0.272606,-7.94245,2736.72,34.8684
2.78,198.94,115.132,228.441,0.285162,0.627816,428.513,31.4676
2.8,198.954,115.139,228.456,0.761162,23.8,1158.61,28.1053
2.82,198.997,115.16,228.504,2.37777,80.8302,2851.51,24.7999
2.84,199.082,115.195,228.596,4.61136,111.68,1542.48,21.5574
2.86,199.227,115.247,228.75,7.71021,154.943,2163.14,18.4141
2.88,199.463,115.317,228.996,12.2826,228.617,3683.74,15.4352
2.9,199.793,115.397,229.335,16.983,235.023,320.3,12.5867
2.92,200.244,115.486,229.795,23.002,300.948,3296.24,9.89369
2.94,200.847,115.575,230.405,30.4843,374.116,3658.38,7.47274
2.96,201.585,115.656,231.147,37.1045,331.012,-2155.2,5.2794
2.98,202.501,115.723,232.066,45.9165,440.597,5479.25,3.42739
3,203.587,115.772,233.152,54.3314,420.749,-992.403,1.92092
3.02,204.868,115.799,234.434,64.0929,488.074,3366.27,0.831526
3.04,206.344,115.81,235.91,73.7765,484.179,-194.732,0.175133
3.06,208.034,115.811,237.6,84.4978,536.067,2594.39,0.00526862
3.08,209.844,115.811,239.41,90.5239,301.305,-11738.1,0
3.1,211.727,115.811,241.293,94.15,181.303,-6000.1,0
3.12,213.682,115.811,243.248,97.75,180,-65.1452,0
3.14,215.709,115.811,245.275,101.35,180,7.10543e-09,0
3.16,217.808,115.811,247.374,104.95,180,-7.14095e-09,0
3.18,219.978,115.811,249.544,108.5,177.5,-125,0
3.2,222.221,115.811,251.787,112.15,182.5,250,0
3.22,224.537,115.811,254.103,115.8,182.5,3.55271e-09,0
3.24,226.923,115.811,256.489,119.3,175,-375,0
3.26,229.382,115.811,258.948,122.95,182.5,375,0
3.28,231.914,115.811,261.48,126.6,182.5,-1.73628e-08,0
3.3,234.517,115.811,264.083,130.15,177.5,-250,0
3.32,237.191,115.811,266.757,133.7,177.5,-3.55271e-09,0
3.34,239.938,115.811,269.504,137.35,182.5,250,0
3.36,242.758,115.811,272.324,141,182.5,7.10543e-09,0
3.38,245.649,115.811,275.215,144.55,177.5,-250,0
3.4,248.612,115.811,278.178,148.15,180,125,0
3.42,251.647,115.811,281.213,151.75,180,0,0
3.44,254.749,115.811,284.315,155.1,167.5,-625,0
3.46,257.829,115.811,287.395,154,-55,-11125,0
3.48,260.836,115.811,290.402,150.35,-182.5,-6375,0
3.5,263.772,115.811,293.338,146.8,-177.5,250,0
3.52,266.635,115.811,296.201,143.15,-182.5,-250,0
3.54,269.427,115.811,298.993,139.6,-177.5,250,0
3.56,272.147,115.811,301.713,136,-180,-125,0
3.58,274.794,115.811,304.36,132.35,-182.5,-125,0
3.6,277.369,115.811,306.935,128.75,-180,125,0
3.62,279.873,115.811,309.439,125.2,-177.5,125,0
3.64,282.305,115.811,311.871,121.6,-180,-125,0
3.66,284.663,115.811,314.229,117.9,-185,-250,0
3.68,286.951,115.811,316.517,114.4,-175,500,0
3.7,289.168,115.811,318.734,110.85,-177.5,-125,0
3.72,291.31,115.811,320.876,107.1,-187.5,-500,0
3.74,293.381,115.811,322.947,103.55,-177.5,500,0
3.76,295.381,115.811,324.947,100,-177.5,1.24146e-08,0
3.78,297.309,115.811,326.875,96.4,-180,-125,0
3.8,299.165,115.811,328.731,92.8,-180,-8.66862e-09,0
3.82,300.947,115.811,330.513,89.1,-185,-250,0
3.84,302.657,115.811,332.223,85.5,-180,250,0
3.86,304.298,115.811,333.864,82.05,-172.5,375,0
3.88,305.864,115.811,335.43,78.3,-187.5,-750,0
3.9,307.36,115.811,336.926,74.8,-175,625,0
3.92,308.782,115.811,338.348,71.1,-185,-500,0
3.94,310.138,115.811,339.704,67.8,-165,1000,0
3.96,311.413,115.811,340.979,63.75,-202.5,-1875,0
3.98,312.618,115.811,342.184,60.25,-175,1375,0
4,313.753,115.811,343.319,56.75,-175,7.1239e-09,0
4.02,314.816,115.811,344.382,53.15,-180,-250,0
4.04,315.807,115.811,345.373,49.55,-180,-1.12834e-09,0
4.06,316.724,115.811,346.29,45.85,-185,-250,0
4.08,317.569,115.811,347.135,42.25,-180,250,0
4.1,318.347,115.811,347.913,38.9,-167.5,625,0
4.12,319.055,115.811,348.621,35.4,-175,-375,0
4.14,319.668,115.811,349.234,30.65,-237.5,-3125,0
4.16,320.239,115.811,349.805,28.55,-105,6625,0
4.18,320.697,115.811,350.263,22.9,-282.5,-8875,0
4.2,321.155,115.811,350.721,22.9,-1.92912e-10,14125,0
4.22,321.345,115.811,350.911,9.5,-670,-33500,0
4.24,321.535,115.811,351.101,9.5,-1.63158e-10,33500,0
4.26,321.725,115.811,351.291,9.5,2.10498e-11,9.21041e-09,0
4.28,321.915,115.811,351.481,9.5,-2.10498e-11,-2.10498e-09,0
4.3,322.104,115.811,351.67,9.45,-2.5,-125,0
