"time","x","y","position","velocity","acceleration","jerk","heading"
0,45.0802,51.3553,0,0,0,0,0
0.02,45.2712,51.3553,0.190989,9.54946,477.473,23873.7,-0.00411908
0.04,45.4621,51.3553,0.381879,9.54446,-0.250007,-23886.2,-0.00823815
0.06,45.653,51.3553,0.572768,9.54446,-1.44666e-05,12.4996,-0.0123572
0.08,45.844,51.3553,0.763757,9.54946,0.250036,12.5025,-0.0164763
0.1,46.0348,51.3552,0.954646,9.54446,-0.249934,-24.9985,-0.0205954
0.12,46.4256,51.3551,1.3454,19.5377,499.663,24995.6,-0.0387942
0.14,46.8905,51.3548,1.81026,23.2431,185.268,-15719.7,-0.0622128
0.16,47.4349,51.3541,2.35472,27.2226,198.978,685.525,-0.0987617
0.18,48.0456,51.3528,2.96542,30.535,165.618,-1668,-0.146209
0.2,48.7602,51.3507,3.68,35.7293,259.715,4704.83,-0.218192
0.22,49.5388,51.3472,4.45864,38.932,160.136,-4978.96,-0.310436
0.24,50.3954,51.3417,5.31523,42.8292,194.858,1736.14,-0.430162
0.26,51.3352,51.3335,6.25505,46.991,208.088,661.477,-0.581814
0.28,52.3594,51.3216,7.27934,51.2146,211.183,154.757,-0.767206
0.3,53.4686,51.3047,8.38867,55.4666,212.597,70.6953,-0.990294
0.32,54.6632,51.2814,9.58351,59.742,213.77,58.6628,-1.25708
0.34,55.9428,51.25,10.8634,63.9963,212.718,-52.6016,-1.57146
0.36,57.3045,51.2085,12.2258,68.1192,206.144,-328.735,-1.92925
0.38,58.747,51.155,13.6693,72.1738,202.73,-170.682,-2.33159
0.4,60.2874,51.0861,15.2113,77.0982,246.218,2174.41,-2.79556
0.42,61.9055,51,16.8316,81.0194,196.06,-2507.9,-3.30403
0.44,63.614,50.8932,18.5435,85.5933,228.698,1631.92,-3.86529
0.46,65.4024,50.7629,20.3366,89.6532,202.996,-1285.13,-4.47519
0.48,67.2799,50.6051,22.2207,94.2081,227.74,1237.22,-5.13436
0.5,69.2384,50.4171,24.1882,98.3727,208.231,-975.468,-5.83774
0.52,71.2765,50.1954,26.2384,102.509,206.812,-70.9489,-6.58107
0.54,73.393,49.9366,28.3706,106.611,205.091,-86.049,-7.35973
0.56,75.5858,49.6377,30.5837,110.656,202.239,-142.58,-8.16802
0.58,77.8523,49.2955,32.8758,114.607,197.599,-232.029,-8.99944
0.6,80.1887,48.9077,35.2442,118.418,190.517,-354.097,-9.84521
0.62,82.5917,48.4721,37.6864,122.112,184.732,-289.241,-10.6984
0.64,85.0571,47.9871,40.1991,125.632,175.997,-436.723,-11.5491
0.66,87.5834,47.4513,42.7815,129.121,174.431,-78.3046,-12.388
0.68,90.1662,46.8644,45.4302,132.436,165.764,-433.367,-13.2066
0.7,92.8,46.227,48.1401,135.49,152.705,-652.97,-13.9919
0.72,95.4845,45.5391,50.9113,138.561,153.522,40.8622,-14.7352
0.74,98.2141,44.8032,53.7383,141.353,139.592,-696.504,-15.4253
0.76,100.985,44.0219,56.6172,143.946,129.644,-497.414,-16.0481
0.78,103.796,43.1982,59.5467,146.473,126.376,-163.4,-16.5911
0.8,106.627,42.3419,62.5046,147.894,71.0292,-2767.31,-17.0395
0.82,109.379,41.4893,65.3848,144.012,-194.059,-13254.4,-17.3664
0.84,112.025,40.6561,68.1588,138.698,-265.712,-3582.64,-17.5693
0.86,114.564,39.8494,70.8236,133.239,-272.964,-362.577,-17.6483
0.88,117,39.0748,73.3793,127.785,-272.686,13.9002,-17.5992
0.9,119.336,38.3372,75.8288,122.478,-265.361,366.219,-17.428
0.92,121.568,37.6418,78.1674,116.929,-277.433,-603.582,-17.1262
0.94,123.702,36.9925,80.3973,111.496,-271.645,289.403,-16.6965
0.96,125.736,36.3925,82.5178,106.024,-273.618,-98.6429,-16.1326
0.98,127.67,35.845,84.5281,100.512,-275.611,-99.6734,-15.4388
1,129.499,35.3537,86.422,94.6977,-290.707,-754.771,-14.593
1.02,131.226,34.9189,88.2027,89.0361,-283.079,381.378,-13.6067
1.04,132.851,34.5416,89.871,83.4131,-281.153,96.3287,-12.4762
1.06,134.369,34.2224,91.4226,77.5798,-291.662,-525.45,-11.1931
1.08,135.78,33.961,92.8574,71.741,-291.94,-13.9007,-9.74829
1.1,137.077,33.7559,94.1705,65.6529,-304.41,-623.498,-8.14219
1.12,138.263,33.6037,95.3664,59.7941,-292.94,573.495,-6.3794
1.14,139.342,33.5001,96.4504,54.2016,-279.624,665.776,-4.46952
1.16,140.301,33.4411,97.4112,48.0418,-307.988,-1418.17,-2.38764
1.18,141.159,33.4204,98.2692,42.9,-257.093,2544.71,-0.197115
1.2,141.912,33.4315,99.0222,37.648,-262.597,-275.204,2.11744
1.22,142.573,33.4684,99.6845,33.1141,-226.695,1795.11,4.55922
1.24,143.149,33.5258,100.263,28.9231,-209.552,857.186,7.07442
1.26,143.645,33.598,100.765,25.0956,-191.375,908.826,9.70852
1.28,144.076,33.6811,101.203,21.921,-158.729,1632.3,12.4281
1.3,144.457,33.7738,101.595,19.6064,-115.728,2150.05,15.1997
1.32,144.784,33.871,101.936,17.0479,-127.927,-609.958,18.0526
1.34,145.08,33.9751,102.25,15.6967,-67.5577,3018.47,20.9403
1.36,145.351,34.0867,102.544,14.6821,-50.7324,841.266,23.8566
1.38,145.607,34.2075,102.827,14.1519,-26.5107,1211.08,26.7922
1.4,145.857,34.3422,103.111,14.2036,2.58686,1454.88,29.7216
1.42,146.109,34.495,103.405,14.7131,25.4753,1144.42,32.6388
1.44,146.37,34.672,103.72,15.7602,52.3551,1343.99,35.5252
1.46,146.651,34.8843,104.073,17.6079,92.3857,2001.53,38.3555
1.48,146.951,35.1353,104.464,19.5727,98.2385,292.64,41.1379
1.5,147.278,35.4356,104.908,22.1928,131.004,1638.26,43.8491
1.52,147.638,35.799,105.419,25.5622,168.471,1873.35,46.4542
1.54,148.021,36.2233,105.991,28.6063,152.203,-813.384,49.0152
1.56,148.45,36.7397,106.662,33.5544,247.408,4760.26,51.4265
1.58,148.903,37.3337,107.409,37.3456,189.558,-2892.52,53.7771
1.6,149.4,38.0419,108.275,43.2599,295.715,5307.86,55.9805
1.62,149.924,38.8512,109.239,48.2066,247.336,-2418.97,58.0677
1.64,150.483,39.7848,110.327,54.4148,310.411,3153.78,59.9972
1.66,151.066,40.8337,111.527,60.0006,279.29,-1556.08,61.7785
1.68,151.67,42.001,112.841,65.718,285.871,329.06,63.4096
1.7,152.293,43.2889,114.272,71.5355,290.874,250.14,64.887
1.72,152.934,44.7,115.822,77.495,297.975,355.083,66.2078
1.74,153.591,46.2353,117.492,83.5024,300.368,119.641,67.3582
1.76,154.264,47.8909,119.279,89.3502,292.39,-398.927,68.3531
1.78,154.949,49.6551,121.171,94.6165,263.315,-1453.73,69.1819
1.8,155.617,51.4457,123.083,95.5681,47.5806,-10786.7,69.8064
1.82,156.263,53.2217,124.972,94.4836,-54.2229,-5090.17,70.2591
1.84,156.887,54.9806,126.839,93.3272,-57.8218,-179.949,70.5414
1.86,157.497,56.7124,128.675,91.7929,-76.7151,-944.663,70.6849
1.88,158.076,58.3673,130.428,87.6638,-206.455,-6487,70.8609
1.9,158.574,59.8219,131.965,76.8722,-539.579,-16656.2,71.5283
1.92,158.974,61.0551,133.262,64.8309,-602.064,-3124.25,72.789
1.94,159.292,62.1247,134.378,55.7851,-452.291,7488.66,74.4295
1.96,159.526,63.0203,135.304,46.2883,-474.842,-1127.56,76.4666
1.98,159.699,63.8026,136.105,40.0631,-311.258,8179.22,78.698
2,159.82,64.4725,136.786,34.0345,-301.431,491.325,81.1089
2.02,159.9,65.0595,137.378,29.6203,-220.709,4036.08,83.6298
2.04,159.948,65.5971,137.918,26.9885,-131.591,4455.91,86.2038
2.06,159.97,66.0937,138.415,24.8513,-106.86,1236.56,88.8456
2.08,159.969,66.5739,138.895,24.0114,-41.9957,3243.22,91.5023
2.1,159.945,67.0528,139.374,23.9757,-1.78108,2010.73,94.1616
2.12,159.897,67.5462,139.87,24.7865,40.5391,2116.01,96.7959
2.14,159.823,68.0655,140.395,26.2294,72.1412,1580.11,99.4006
2.16,159.715,68.6316,140.971,28.8099,129.027,2844.31,101.935
2.18,159.57,69.2516,141.608,31.8424,151.623,1129.78,104.394
2.2,159.377,69.9371,142.32,35.6108,188.424,1840.04,106.777
2.22,159.124,70.7163,143.139,40.946,266.756,3916.61,109.018
2.24,158.807,71.5783,144.058,45.9328,249.341,-870.729,111.152
2.26,158.411,72.5504,145.107,52.4882,327.77,3921.41,113.089
2.28,157.931,73.6257,146.285,58.8678,318.98,-439.458,114.833
2.3,157.365,74.8043,147.592,65.3846,325.842,343.054,116.369
2.32,156.702,76.1016,149.049,72.8364,372.589,2337.4,117.637
2.34,155.943,77.5173,150.655,80.3147,373.917,66.3544,118.644
2.36,155.088,79.0545,152.415,87.9556,382.042,406.288,119.371
2.38,154.165,80.6769,154.281,93.3128,267.859,-5709.14,119.775
2.4,153.219,82.3276,156.184,95.1425,91.4868,-8818.63,119.82
2.42,152.269,83.9903,158.099,95.7582,30.7865,-3035.02,119.573
2.44,151.324,85.6674,160.023,96.2315,23.6624,-356.202,119.047
2.46,150.394,87.3677,161.962,96.9034,33.5958,496.67,118.23
2.48,149.49,89.0857,163.903,97.0621,7.93332,-1283.13,117.143
2.5,148.62,90.8299,165.852,97.4577,19.782,592.432,115.782
2.52,147.793,92.6043,167.81,97.8974,21.9855,110.177,114.143
2.54,147.017,94.4093,169.774,98.225,16.3773,-280.41,112.231
2.56,146.305,96.2438,171.742,98.3862,8.06265,-415.732,110.053
2.58,145.663,98.1222,173.727,99.2693,44.1527,1804.5,107.574
2.6,145.109,100.018,175.702,98.728,-27.0655,-3560.91,104.892
2.62,144.652,101.927,177.666,98.1919,-26.8038,13.0839,101.976
2.64,144.293,103.874,179.645,98.9553,38.1703,3248.71,98.777
2.66,144.049,105.823,181.609,98.2054,-37.4963,-3783.33,95.423
2.68,143.921,107.776,183.567,97.8977,-15.3847,1105.58,91.9213
2.7,143.916,109.735,185.526,97.9362,1.92807,865.639,88.278
2.72,144.04,111.697,187.492,98.3017,18.2708,817.138,84.4837
2.74,144.297,113.664,189.475,99.1814,43.989,1285.91,80.5463
2.76,144.693,115.614,191.465,99.5012,15.9864,-1400.13,76.5296
2.78,145.224,117.534,193.457,99.5837,4.12568,-593.034,72.4723
2.8,145.891,119.41,195.448,99.5631,-1.03046,-257.807,68.4021
2.82,146.688,121.233,197.438,99.4818,-4.06298,-151.626,64.3407
2.84,147.611,122.992,199.425,99.3357,-7.30564,-162.133,60.3234
2.86,148.654,124.681,201.409,99.2147,-6.0514,62.7121,56.3661
2.88,149.808,126.292,203.391,99.0874,-6.36429,-15.6447,52.4898
2.9,151.056,127.812,205.358,98.3594,-36.3965,-1501.61,48.7516
2.92,152.39,129.239,207.311,97.6648,-34.7326,83.1967,45.1688
2.94,153.812,130.582,209.267,97.7971,6.61318,2067.29,41.7064
2.96,155.319,131.845,211.234,98.3287,26.5837,998.523,38.3567
2.98,156.897,133.022,213.202,98.3972,3.42184,-1158.09,35.1638
3,158.529,134.107,215.161,97.9815,-20.7853,-1210.36,32.1687
3.02,160.239,135.12,217.149,99.3854,70.1947,4549,29.2637
3.04,162.007,136.055,219.149,100.001,30.7578,-1971.84,26.504
3.06,163.831,136.911,221.164,100.729,36.4169,282.952,23.8786
3.08,165.725,137.698,223.215,102.569,92.0036,2779.34,21.3383
3.1,167.661,138.407,225.277,103.098,26.4524,-3277.56,18.9168
3.12,169.654,139.043,227.369,104.592,74.6928,2412.02,16.5502
3.14,171.684,139.602,229.475,105.29,34.9305,-1988.11,14.2569
3.16,173.747,140.082,231.592,105.889,29.9503,-249.008,11.9928
3.18,175.832,140.483,233.716,106.16,13.5108,-821.976,9.73888
3.2,177.928,140.8,235.836,106.008,-7.57797,-1054.44,7.46085
3.22,180.009,141.031,237.93,104.691,-65.8535,-2913.78,5.14308
3.24,182.077,141.175,240.002,103.626,-53.2396,630.697,2.72476
3.26,184.104,141.228,242.031,101.422,-110.229,-2849.46,0.224001
3.28,186.115,141.189,244.042,100.575,-42.3485,3394.02,-2.34696
3.3,187.828,141.093,245.757,85.7513,-741.171,-34941.1,-3.74951
3.32,189.461,140.973,247.395,81.8783,-193.648,27376.1,-4.6461
3.34,191.185,140.819,249.125,86.5403,233.097,21337.3,-5.59165
3.36,192.982,140.627,250.932,90.3483,190.402,-2134.78,-6.57643
3.38,194.865,140.392,252.83,94.8999,227.579,1858.9,-7.60411
3.4,196.822,140.113,254.807,98.8398,196.994,-1529.27,-8.66755
3.42,198.852,139.783,256.864,102.819,198.949,97.7465,-9.76159
3.44,200.957,139.4,259.003,106.979,208.038,454.43,-10.8847
3.46,203.129,138.959,261.22,110.835,192.787,-762.535,-12.0279
3.48,205.367,138.458,263.513,114.654,190.924,-93.1511,-13.1839
3.5,207.665,137.896,265.879,118.299,182.262,-433.074,-14.3466
3.52,210.017,137.269,268.313,121.728,171.429,-541.688,-15.5024
3.54,212.423,136.575,270.817,125.196,173.442,100.661,-16.6451
3.56,214.879,135.814,273.388,128.52,166.162,-364.015,-17.762
3.58,217.374,134.988,276.017,131.441,146.059,-1005.11,-18.8376
3.6,219.908,134.098,278.702,134.291,142.487,-178.609,-19.8653
3.62,222.479,133.144,281.444,137.09,139.965,-126.091,-20.828
3.64,225.078,132.132,284.234,139.486,119.804,-1008.08,-21.714
3.66,227.706,131.063,287.07,141.807,116.07,-186.707,-22.5076
3.68,230.359,129.945,289.949,143.955,107.372,-434.879,-23.2035
3.7,233.035,128.781,292.868,145.948,99.6598,-385.621,-23.791
3.72,235.737,127.576,295.826,147.898,97.5027,-107.852,-24.2589
3.74,238.464,126.336,298.821,149.762,93.2089,-214.691,-24.6045
3.76,241.216,125.069,301.852,151.514,87.5835,-281.27,-24.8268
3.78,243.999,123.777,304.92,153.401,94.3757,339.611,-24.9297
3.8,246.817,122.467,308.028,155.402,100.02,282.206,-24.9203
3.82,249.674,121.142,311.177,157.472,103.531,175.577,-24.8093
3.84,252.579,119.805,314.375,159.886,120.681,857.483,-24.6103
3.86,255.537,118.459,317.624,162.473,129.354,433.669,-24.3424
3.88,258.552,117.104,320.93,165.273,139.995,532.005,-24.0244
3.9,261.586,115.763,324.247,165.88,30.3537,-5482.04,-23.6803
3.92,264.568,114.466,327.499,162.57,-165.501,-9792.73,-23.3386
3.94,267.494,113.213,330.682,159.181,-169.435,-196.703,-23.0136
3.96,270.368,112.001,333.801,155.924,-162.869,328.315,-22.7149
3.98,273.189,110.828,336.856,152.76,-158.222,232.353,-22.4482
4,275.958,109.691,339.85,149.705,-152.715,275.344,-22.2149
4.02,278.674,108.587,342.782,146.57,-156.782,-203.376,-22.0159
4.04,281.336,107.516,345.651,143.457,-155.633,57.442,-21.8498
4.06,283.941,106.474,348.457,140.294,-158.159,-126.258,-21.7139
4.08,286.49,105.462,351.199,137.133,-158.056,5.13884,-21.6061
4.1,288.979,104.479,353.875,133.801,-166.572,-425.827,-21.5232
4.12,291.41,103.522,356.487,130.604,-159.871,335.088,-21.462
4.14,293.778,102.592,359.032,127.231,-168.655,-439.205,-21.4191
4.16,296.084,101.688,361.509,123.833,-169.893,-61.921,-21.3924
4.18,298.327,100.81,363.918,120.463,-168.471,71.1135,-21.379
4.2,300.508,99.9563,366.259,117.064,-169.982,-75.5759,-21.3763
4.22,302.621,99.1289,368.529,113.497,-178.341,-417.952,-21.3829
4.24,304.67,98.3263,370.729,110.009,-174.377,198.212,-21.3962
4.26,306.654,97.5487,372.86,106.549,-173.006,68.5335,-21.415
4.28,308.571,96.7962,374.92,102.975,-178.725,-285.909,-21.4377
4.3,310.422,96.0692,376.908,99.427,-177.392,66.6085,-21.4633
4.32,312.205,95.3675,378.825,95.8207,-180.31,-145.896,-21.4906
4.34,313.922,94.6913,380.67,92.2481,-178.632,83.9036,-21.5187
4.36,315.571,94.0403,382.443,88.6705,-178.881,-12.4307,-21.547
4.38,317.155,93.4146,384.146,85.1307,-176.987,94.6752,-21.5749
4.4,318.667,92.8162,385.772,81.3135,-190.863,-693.767,-21.6017
4.42,320.116,92.2421,387.33,77.9238,-169.485,1068.87,-21.6273
4.44,321.493,91.6959,388.812,74.0887,-191.755,-1113.46,-21.6512
4.46,322.808,91.1734,390.227,70.7475,-167.06,1234.74,-21.6734
4.48,324.049,90.6804,391.562,66.7395,-200.397,-1666.87,-21.6935
4.5,325.224,90.2125,392.827,63.2288,-175.537,1243,-21.7116
4.52,326.334,89.7703,394.022,59.7571,-173.584,97.6657,-21.7277
4.54,327.377,89.3545,395.144,56.1342,-181.147,-378.156,-21.742
4.56,328.352,88.9657,396.194,52.4929,-182.063,-45.8118,-21.754
4.58,329.257,88.6043,397.169,48.7136,-188.967,-345.173,-21.7643
4.6,330.093,88.2707,398.069,45.0197,-184.693,213.658,-21.7729
4.62,330.859,87.9644,398.894,41.2419,-188.894,-210.023,-21.7799
4.64,331.56,87.6842,399.649,37.7681,-173.686,760.376,-21.7854
4.66,332.208,87.4257,400.346,34.8476,-146.028,1382.89,-21.7899
4.68,332.763,87.2037,400.944,29.8815,-248.305,-5113.84,-21.7932
4.7,333.261,87.0044,401.481,26.8519,-151.475,4841.49,-21.7958
4.72,333.687,86.8341,401.939,22.9133,-196.93,-2272.71,-21.7975
4.74,334.049,86.6893,402.329,19.5127,-170.035,1344.74,-21.7989
4.76,334.225,86.6189,402.519,9.48366,-501.449,-16570.7,-21.7993
4.78,334.401,86.5483,402.709,9.48408,0.0207242,25073.5,-21.7996
4.8,334.577,86.4778,402.898,9.48408,6.02451e-10,-1.03621,-21.7999
4.82,334.753,86.4073,403.088,9.48366,-0.0207242,-1.03621,-21.8003
4.84,334.93,86.3368,403.278,9.48408,0.0207242,2.07242,-21.8006
