"time","x","y","position","velocity","acceleration","jerk","heading"
0,45.0802,34.8128,0,0,180,0,0
0.02,45.27,34.8128,0.189737,3.6,180,0,-0.00411634
0.04,45.4597,34.8128,0.379473,7.2,180,0,-0.00823268
0.06,45.6494,34.8128,0.56921,10.8,180,0,-0.012349
0.08,45.8392,34.8128,0.758947,14.4,180,0,-0.0164654
0.1,46.0289,34.8127,0.948683,18,180,0,-0.0205817
0.12,46.4144,34.8126,1.33418,21.6,180,0,-0.0387684
0.14,46.8725,34.8123,1.79224,25.2,180,0,-0.0621715
0.16,47.4064,34.8116,2.3262,28.8,180,0,-0.098696
0.18,48.0034,34.8104,2.92317,32.4,180,0,-0.146112
0.2,48.6972,34.8083,3.61697,36,180,0,-0.218046
0.22,49.4492,34.805,4.36898,39.6,180,0,-0.310229
0.24,50.2712,34.7997,5.19104,43.2,180,0,-0.429875
0.26,51.1672,34.7919,6.08706,46.8,180,0,-0.581424
0.28,52.1379,34.7807,7.05782,50.4,180,0,-0.76669
0.3,53.1827,34.7648,8.10271,54,180,0,-0.989624
0.32,54.3003,34.743,9.22053,57.6,180,0,-1.25622
0.34,55.4892,34.7138,10.4098,61.2,180,0,-1.57039
0.36,56.7476,34.6755,11.6688,64.8,180,0,-1.92791
0.38,58.074,34.6263,12.9961,68.4,180,0,-2.32997
0.4,59.4806,34.5635,14.4042,72,180,0,-2.7936
0.42,60.9521,34.4853,15.8777,75.6,180,0,-3.30169
0.44,62.4989,34.3886,17.4275,79.2,180,0,-3.86253
0.46,64.1116,34.2712,19.0445,82.8,180,0,-4.47195
0.48,65.7995,34.1295,20.7384,86.4,180,0,-5.1306
0.5,67.5559,33.961,22.5028,90,180,0,-5.83342
0.52,69.3806,33.7626,24.3383,93.6,180,0,-6.57615
0.54,71.274,33.5314,26.2457,97.2,180,0,-7.35417
0.56,73.2356,33.2641,28.2255,100.8,180,0,-8.16179
0.58,75.2648,32.958,30.2776,104.4,180,0,-8.9925
0.6,77.3603,32.6104,32.4018,108,180,0,-9.83756
0.62,79.521,32.219,34.5977,111.6,180,0,-10.69
0.64,81.7455,31.7818,36.8648,115.2,180,0,-11.5401
0.66,84.0349,31.2967,39.205,118.8,180,0,-12.3782
0.68,86.3874,30.7625,41.6174,122.4,180,0,-13.1961
0.7,88.8008,30.1788,44.1005,126,180,0,-13.9808
0.72,91.2776,29.5447,46.6572,129.6,180,0,-14.7235
0.74,93.815,28.8611,49.285,133.2,180,0,-15.4132
0.76,96.4129,28.1292,51.9841,136.8,180,0,-16.0356
0.78,99.0739,27.3501,54.7568,140.4,180,0,-16.5782
0.8,101.781,26.5319,57.5853,141.134,-180,0,-17.0265
0.82,104.443,25.7077,60.3719,137.534,-180,0,-17.3534
0.84,107.034,24.8926,63.0873,133.934,-180,0,-17.5564
0.86,109.552,24.0932,65.7294,130.334,-180,0,-17.6356
0.88,112.002,23.3149,68.2999,126.734,-180,0,-17.5869
0.9,114.385,22.5627,70.7988,123.134,-180,0,-17.4161
0.92,116.702,21.8418,73.2253,119.534,-180,0,-17.115
0.94,118.954,21.1567,75.5795,115.934,-180,0,-16.6859
0.96,121.144,20.5111,77.8629,112.334,-180,0,-16.1229
0.98,123.272,19.9093,80.0739,108.734,-180,0,-15.4301
1,125.336,19.355,82.2118,105.134,-180,0,-14.5852
1.02,127.34,18.851,84.278,101.534,-180,0,-13.6002
1.04,129.283,18.4002,86.2726,97.9338,-180,0,-12.4711
1.06,131.165,18.0052,88.1955,94.3338,-180,0,-11.1888
1.08,132.986,17.668,90.0473,90.7338,-180,0,-9.74545
1.1,134.741,17.3908,91.8248,87.1338,-180,0,-8.14099
1.12,136.433,17.1742,93.53,83.5338,-180,0,-6.37959
1.14,138.061,17.0185,95.1659,79.9338,-180,0,-4.471
1.16,139.62,16.9235,96.7275,76.3338,-180,0,-2.39067
1.18,141.11,16.8884,98.2182,72.7338,-165.685,0,-0.200667
1.2,142.531,16.9106,99.6399,69.7337,-156.382,0,2.11257
1.22,143.896,16.9884,101.007,66.4796,-102.944,0,4.55309
1.24,145.195,17.1193,102.313,64.3116,-118.536,0,7.06879
1.26,146.444,17.3023,103.575,62.0103,-84.5096,0,9.70115
1.28,147.645,17.536,104.799,60.3724,-83.4955,0,12.4213
1.3,148.803,17.8197,105.991,58.6915,-39.1995,0,15.1922
1.32,149.92,18.1523,107.156,57.8672,-48.782,0,18.046
1.34,151.002,18.5346,108.304,56.9668,-19.1835,0,20.9338
1.36,152.051,18.9667,109.439,56.5882,-9.07549,0,23.8507
1.38,153.073,19.4498,110.569,56.4305,6.49552,0,26.7868
1.4,154.068,19.9847,111.699,56.5696,27.7067,0,29.7169
1.42,155.04,20.5733,112.835,57.1408,28.8007,0,32.6351
1.44,155.99,21.2169,113.984,57.7138,70.8846,0,35.5223
1.46,156.924,21.92,115.153,59.076,56.965,0,38.3537
1.48,157.842,22.6843,116.347,60.3493,94.3187,0,41.1368
1.5,158.745,23.513,117.573,62.2021,101.489,0,43.8495
1.52,159.635,24.4092,118.836,64.2806,131.009,0,46.4555
1.54,160.515,25.3803,120.147,66.8949,131.521,0,49.0177
1.56,161.389,26.4313,121.514,69.721,169.357,0,51.4301
1.58,162.253,27.564,122.939,73.109,179.356,0,53.7817
1.6,163.116,28.792,124.439,76.7001,180,0,55.9859
1.62,163.968,30.1065,126.006,80.3001,180,0,58.0739
1.64,164.813,31.5173,127.651,83.9001,180,0,60.004
1.66,165.646,33.0151,129.364,87.5001,180,0,61.7858
1.68,166.466,34.6,131.149,91.1001,180,0,63.4171
1.7,167.275,36.2713,133.006,94.7001,180,0,64.8945
1.72,168.073,38.0291,134.936,98.3001,180,0,66.215
1.74,168.861,39.8693,136.938,101.9,180,0,67.3651
1.76,169.642,41.7903,139.012,105.5,180,0,68.3594
1.78,170.418,43.7919,141.159,109.1,180,0,69.1926
1.8,171.192,45.8669,143.373,111.795,-124.033,0,69.8457
1.82,171.943,47.9427,145.581,108.697,-180,0,70.3191
1.84,172.658,49.9579,147.719,105.097,-180,0,70.5939
1.86,173.341,51.9076,149.785,101.497,-180,0,70.7037
1.88,173.997,53.7904,151.779,97.8966,-180,0,71.0565
1.9,174.61,55.6116,153.7,94.2966,-180,0,71.9633
1.92,175.163,57.3761,155.55,90.6966,-180,0,73.3486
1.94,175.649,59.0865,157.328,87.0966,-180,0,75.0695
1.96,176.063,60.7437,159.036,83.5088,-151.184,0,76.9642
1.98,176.404,62.3461,160.674,80.6186,-93.1014,0,79.0025
2,176.681,63.9169,162.269,79.0084,-38.3365,0,81.0747
2.02,176.896,65.475,163.842,78.3536,0.129745,0,83.1858
2.04,177.053,67.0349,165.41,78.4805,34.6117,0,85.3002
2.06,177.154,68.6076,166.986,79.302,51.3701,0,87.4027
2.08,177.197,70.2057,168.585,80.5634,98.086,0,89.4759
2.1,177.182,71.8357,170.215,82.552,103.373,0,91.5133
2.12,177.108,73.5065,171.888,85.0451,133.079,0,93.4898
2.14,176.973,75.2309,173.617,87.8948,172.454,0,95.4108
2.16,176.775,77.0123,175.41,91.4088,180,0,97.2558
2.18,176.51,78.8569,177.273,95.0088,180,0,99.0128
2.2,176.178,80.7639,179.209,98.6088,180,0,100.665
2.22,175.779,82.7319,181.217,102.209,180,0,102.198
2.24,175.314,84.7594,183.298,105.809,180,0,103.6
2.26,174.783,86.8454,185.45,109.409,180,0,104.857
2.28,174.194,88.9802,187.665,110.942,-175.199,0,105.948
2.3,173.577,91.0752,189.849,107.385,-180,0,106.836
2.32,172.952,93.0931,191.961,103.785,-180,0,107.519
2.34,172.329,95.0356,194.001,100.185,-180,0,108.012
2.36,171.715,96.9048,195.969,96.5855,-180,0,108.308
2.38,171.117,98.7028,197.863,92.9855,-180,0,108.43
2.4,170.54,100.432,199.686,89.3855,-180,0,108.386
2.42,169.99,102.094,201.437,85.7855,-180,0,108.18
2.44,169.47,103.693,203.118,82.1855,-180,0,107.794
2.46,168.985,105.224,204.725,78.5855,-180,0,107.222
2.48,168.539,106.693,206.26,74.9855,-180,0,106.468
2.5,168.135,108.1,207.723,71.3855,-180,0,105.489
2.52,167.775,109.446,209.117,67.7855,-180,0,104.304
2.54,167.464,110.725,210.433,64.1855,-180,0,102.849
2.56,167.203,111.945,211.681,60.5855,-180,0,101.091
2.58,166.995,113.104,212.859,56.9855,-180,0,99.0593
2.6,166.841,114.199,213.964,53.3855,-180,0,96.7113
2.62,166.744,115.227,214.997,49.7855,-180,0,93.9586
2.64,166.703,116.184,215.955,46.1855,-180,0,90.7428
2.66,166.717,117.067,216.838,42.5855,-151.854,0,86.743
2.68,166.785,117.88,217.654,39.5335,-145.207,0,82.8783
2.7,166.901,118.63,218.413,36.6262,-123.362,0,78.4166
2.72,167.068,119.322,219.126,33.931,-86.7769,0,73.5014
2.74,167.276,119.946,219.783,32.0666,-53.0211,0,68.7056
2.76,167.527,120.522,220.412,30.8899,-28.1572,0,63.3949
2.78,167.827,121.059,221.027,30.0823,-7.61577,0,57.8344
2.8,168.169,121.55,221.626,29.9104,14.237,0,52.3581
2.82,168.559,122.008,222.227,30.0124,39.4876,0,46.8345
2.84,168.994,122.427,222.832,30.5701,70.3921,0,41.2319
2.86,169.489,122.817,223.462,31.8664,98.9003,0,36.0744
2.88,170.032,123.171,224.111,33.5824,123.965,0,31.0666
2.9,170.649,123.5,224.81,36.0246,135.642,0,25.9503
2.92,171.338,123.796,225.56,38.71,161.895,0,21.6653
2.94,172.096,124.061,226.364,41.8397,180,0,17.5857
2.96,172.935,124.288,227.232,45.4397,180,0,13.5755
2.98,173.857,124.48,228.175,49.0397,180,0,10.2731
3,174.862,124.635,229.191,52.6397,180,0,7.42335
3.02,175.945,124.75,230.281,56.2397,180,0,5.00145
3.04,177.104,124.828,231.442,59.8397,180,0,2.9203
3.06,178.335,124.869,232.674,63.4397,180,0,1.14107
3.08,179.635,124.876,233.974,67.0397,180,0,-0.31849
3.1,181.015,124.854,235.355,70.6397,180,0,-1.41228
3.12,182.462,124.805,236.802,74.2397,180,0,-2.2795
3.14,183.981,124.737,238.323,77.8397,180,0,-2.7737
3.16,185.57,124.655,239.914,81.4397,180,0,-3.00566
3.18,187.234,124.567,241.581,85.0397,180,0,-3.09629
3.2,188.968,124.471,243.317,88.6397,180,0,-3.30596
3.22,190.772,124.361,245.124,92.2397,180,0,-3.68986
3.24,192.647,124.232,247.004,95.8397,180,0,-4.25512
3.26,194.594,124.075,248.957,99.4397,180,0,-5.0122
3.28,196.609,123.881,250.982,103.04,180,0,-5.99919
3.3,198.675,123.643,253.061,103.337,-180,0,-7.2267
3.32,200.686,123.364,255.092,99.7368,-180,0,-8.62362
3.34,202.619,123.045,257.051,96.1368,-180,0,-10.1957
3.36,204.471,122.684,258.937,92.5368,-180,0,-11.8888
3.38,206.239,122.283,260.751,88.9368,-177.644,0,-13.709
3.4,207.926,121.843,262.494,85.5835,-136.699,0,-15.6039
3.42,209.541,121.362,264.18,82.9509,-105.538,0,-17.5766
3.44,211.094,120.84,265.818,80.9912,-67.8338,0,-19.6007
3.46,212.598,120.275,267.425,79.7847,-32.4937,0,-21.6625
3.48,214.065,119.661,269.015,79.2297,2.90311,0,-23.7501
3.5,215.505,118.996,270.601,79.4766,45.3841,0,-25.8402
3.52,216.931,118.273,272.2,80.5446,94.8324,0,-27.9143
3.54,218.358,117.483,273.83,82.6556,154.169,0,-29.9534
3.56,219.803,116.616,275.516,85.9059,180,0,-31.9211
3.58,221.275,115.664,277.27,89.5059,180,0,-33.7722
3.6,222.776,114.627,279.094,93.1059,180,0,-35.4514
3.62,224.307,113.506,280.992,96.7059,180,0,-36.8911
3.64,225.871,112.307,282.962,100.306,180,0,-38.0221
3.66,227.47,111.037,285.004,103.906,180,0,-38.7854
3.68,229.113,109.705,287.119,107.506,180,0,-39.1694
3.7,230.807,108.323,289.306,111.106,180,0,-39.1646
3.72,232.562,106.901,291.564,114.706,180,0,-38.7511
3.74,234.387,105.454,293.893,118.306,180,0,-37.985
3.76,236.285,104,296.284,119.792,-180,0,-36.8757
3.78,238.188,102.605,298.643,116.192,-180,0,-35.5537
3.8,240.066,101.297,300.932,112.592,-149.569,0,-34.1142
3.82,241.924,100.073,303.157,110.227,-48.488,0,-32.6254
3.84,243.789,98.9133,305.354,109.621,21.1947,0,-31.1154
3.86,245.686,97.8023,307.552,110.358,81.078,0,-29.6068
3.88,247.635,96.7285,309.777,112.404,133.168,0,-28.1171
3.9,249.656,95.6819,312.054,115.498,180,0,-26.6624
3.92,251.767,94.6549,314.401,119.098,180,0,-25.2612
3.94,253.965,93.6492,316.818,122.698,180,0,-23.9444
3.96,256.251,92.6631,319.308,126.298,180,0,-22.752
3.98,258.623,91.6951,321.87,129.898,180,0,-21.7088
4,261.078,90.74,324.504,133.498,180,0,-20.8528
4.02,263.613,89.7951,327.21,137.098,180,0,-20.0344
4.04,266.229,88.8625,329.987,140.698,180,0,-19.215
4.06,268.928,87.944,332.838,144.298,180,0,-18.3813
4.08,271.707,87.0434,335.76,147.898,180,0,-17.5153
4.1,274.567,86.1658,338.751,150.599,-135.214,0,-16.6016
4.12,277.43,85.3376,341.732,147.297,-180,0,-15.6517
4.14,280.238,84.5761,344.641,143.697,-180,0,-14.6835
4.16,282.99,83.8801,347.479,140.097,-180,0,-13.7038
4.18,285.682,83.2476,350.245,136.497,-180,0,-12.7306
4.2,288.316,82.6755,352.94,132.897,-180,0,-11.7946
4.22,290.885,82.1593,355.561,129.297,-180,0,-10.9411
4.24,293.393,81.6918,358.111,125.697,-180,0,-10.2153
4.26,295.832,81.2649,360.588,122.097,-180,0,-9.67322
4.28,298.207,80.8683,362.996,118.497,-180,0,-9.3525
4.3,300.509,80.4928,365.328,114.897,-180,0,-9.24401
4.32,302.741,80.1291,367.59,111.297,-180,0,-9.33085
4.34,304.902,79.7701,369.78,107.697,-180,0,-9.57794
4.36,306.99,79.4114,371.899,104.097,-180,0,-9.94298
4.38,309.004,79.0507,373.945,100.497,-180,0,-10.3737
4.4,310.944,78.6877,375.919,96.8967,-180,0,-10.8314
4.42,312.81,78.323,377.82,93.2967,-180,0,-11.2867
4.44,314.602,77.9582,379.649,89.6967,-180,0,-11.7206
4.46,316.322,77.595,381.406,86.0967,-180,0,-12.124
4.48,317.971,77.2352,383.094,82.4967,-180,0,-12.4929
4.5,319.543,76.8819,384.706,78.8967,-180,0,-12.8196
4.52,321.046,76.5358,386.248,75.2967,-180,0,-13.111
4.54,322.476,76.1992,387.717,71.6967,-180,0,-13.3674
4.56,323.837,75.8729,389.117,68.0967,-180,0,-13.5891
4.58,325.122,75.5599,390.439,64.4967,-180,0,-13.7797
4.6,326.34,75.2593,391.694,60.8967,-180,0,-13.9447
4.62,327.489,74.9725,392.878,57.2967,-180,0,-14.0832
4.64,328.568,74.7006,393.99,53.6967,-180,0,-14.2004
4.66,329.573,74.4453,395.027,50.0967,-180,0,-14.2987
4.68,330.509,74.2058,395.994,46.4967,-180,0,-14.3765
4.7,331.371,73.9845,396.884,42.8967,-180,0,-14.4386
4.72,332.16,73.7809,397.699,39.2967,-180,0,-14.4888
4.74,332.88,73.5945,398.443,35.6967,-180,0,-14.5279
4.76,333.543,73.4226,399.127,32.0967,-180,0,-14.5584
4.78,334.12,73.2724,399.724,28.4967,-180,0,-14.5781
4.8,334.626,73.1408,400.246,24.8967,-180,0,-14.5928
4.82,335.069,73.0253,400.704,21.2967,-180,0,-14.6031
4.84,335.42,72.9338,401.067,17.6967,-180,0,-14.6105
4.86,335.604,72.8859,401.257,14.0967,-180,0,-14.6124
4.88,335.787,72.838,401.447,10.4967,-180,0,-14.6143
4.9,335.971,72.7902,401.636,6.89666,-180,0,-14.6162
4.92,336.155,72.7423,401.826,3.29666,-180,0,-14.6181
