"time","x","y","position","velocity","acceleration","jerk","heading"
0,26.8115,150,0,0,180,0,0
0.02,27.0013,150,0.189737,3.6,180,0,0
0.04,27.191,150,0.379473,7.2,180,0,0
0.06,27.3807,150,0.56921,10.8,180,0,0
0.08,27.5705,150,0.758947,14.4,180,0,0
0.1,27.7602,150,0.948683,18,180,0,0
0.12,28.1457,150,1.33418,21.6,180,0,0
0.14,28.6038,150,1.79224,25.2,180,0,0
0.16,29.1377,150,2.3262,28.8,180,0,0
0.18,29.7347,150,2.92317,32.4,180,0,0
0.2,30.4285,150,3.61697,36,180,0,0
0.22,31.1805,150,4.36898,39.6,180,0,0
0.24,32.0026,150,5.19104,43.2,180,0,0
0.26,32.8986,150,6.08706,46.8,180,0,0
0.28,33.8693,150,7.05782,50.4,180,0,0
0.3,34.9142,150,8.10271,54,180,0,0
0.32,36.032,150,9.22053,57.6,180,0,0
0.34,37.2213,150,10.4098,61.2,180,0,0
0.36,38.4803,150,11.6688,64.8,180,0,0
0.38,39.8076,150,12.9961,68.4,180,0,0
0.4,41.2157,150,14.4042,72,180,0,0
0.42,42.6893,150,15.8777,75.6,180,0,0
0.44,44.239,150,17.4275,79.2,180,0,0
0.46,45.8561,150,19.0445,82.8,180,0,0
0.48,47.5499,150,20.7384,86.4,180,0,0
0.5,49.3143,150,22.5028,90,180,0,0
0.52,51.1498,150,24.3383,93.6,180,0,0
0.54,53.0573,150,26.2457,97.2,180,0,0
0.56,55.0371,150,28.2255,100.8,180,0,0
0.58,57.0892,150,30.2776,104.4,180,0,0
0.6,59.2134,150,32.4018,108,180,0,0
0.62,61.4093,150,34.5977,111.6,180,0,0
0.64,63.6763,150,36.8648,115.2,180,0,0
0.66,66.0166,150,39.205,118.8,180,0,0
0.68,68.4289,150,41.6174,122.4,180,0,0
0.7,70.912,150,44.1005,126,180,0,0
0.72,73.4687,150,46.6572,129.6,180,0,0
0.74,76.0966,150,49.285,133.2,180,0,0
0.76,78.7956,150,51.9841,136.8,180,0,0
0.78,81.5684,150,54.7568,140.4,180,0,0
0.8,84.4126,150,57.601,144,180,0,0
0.82,87.3286,150,60.517,147.6,180,0,0
0.84,90.3165,150,63.505,151.2,180,0,0
0.86,93.3764,150,66.5649,154.8,180,0,0
0.88,96.5083,150,69.6968,158.4,180,0,0
0.9,99.7118,150,72.9003,162,180,0,0
0.92,102.988,150,76.1765,165.6,180,0,0
0.94,106.336,150,79.5248,169.2,180,0,0
0.96,109.756,150,82.9442,172.8,180,0,0
0.98,113.248,150,86.4367,176.4,180,0,0
1,116.812,150,90,180,0,0,0
1.02,120.412,150,93.6,180,0,0,0
1.04,124.012,150,97.2,180,0,0,0
1.06,127.612,150,100.8,180,0,0,0
1.08,131.212,150,104.4,180,0,0,0
1.1,134.812,150,108,180,0,0,0
1.12,138.412,150,111.6,180,0,0,0
1.14,142.012,150,115.2,180,0,0,0
1.16,145.612,150,118.8,180,0,0,0
1.18,149.212,150,122.4,180,0,0,0
1.2,152.812,150,126,180,0,0,0
1.22,156.412,150,129.6,180,0,0,0
1.24,160.012,150,133.2,180,0,0,0
1.26,163.612,150,136.8,180,0,0,0
1.28,167.212,150,140.4,180,0,0,0
1.3,170.812,150,144,180,0,0,0
1.32,174.412,150,147.6,180,0,0,0
1.34,178.012,150,151.2,180,0,0,0
1.36,181.612,150,154.8,180,0,0,0
1.38,185.212,150,158.4,180,0,0,0
1.4,188.812,150,162,180,0,0,0
1.42,192.412,150,165.6,180,0,0,0
1.44,196.012,150,169.2,180,0,0,0
1.46,199.612,150,172.8,180,0,0,0
1.48,203.212,150,176.4,180,0,0,0
1.5,206.812,150,180,180,0,0,0
1.52,210.412,150,183.6,180,0,0,0
1.54,214.012,150,187.2,180,0,0,0
1.56,217.612,150,190.8,180,0,0,0
1.58,221.212,150,194.4,180,0,0,0
1.6,224.812,150,198,180,0,0,0
1.62,228.412,150,201.6,180,0,0,0
1.64,232.012,150,205.2,180,0,0,0
1.66,235.612,150,208.8,180,0,0,0
1.68,239.212,150,212.4,180,0,0,0
1.7,242.812,150,216,180,0,0,0
1.72,246.412,150,219.6,180,0,0,0
1.74,250.012,150,223.2,180,0,0,0
1.76,253.612,150,226.8,180,0,0,0
1.78,257.212,150,230.4,180,0,0,0
1.8,260.812,150,234,180,0,0,0
1.82,264.412,150,237.6,180,0,0,0
1.84,268.012,150,241.2,180,0,0,0
1.86,271.612,150,244.8,180,0,0,0
1.88,275.212,150,248.4,180,0,0,0
1.9,278.812,150,252,180,0,0,0
1.92,282.412,150,255.6,180,0,0,0
1.94,286.012,150,259.2,180,0,0,0
1.96,289.612,150,262.8,180,0,0,0
1.98,293.212,150,266.4,180,0,0,0
2,296.812,150,270,180,0,0,0
2.02,300.412,150,273.6,180,0,0,0
2.04,304.012,150,277.2,180,0,0,0
2.06,307.612,150,280.8,180,0,0,0
2.08,311.212,150,284.4,180,0,0,0
2.1,314.812,150,288,180,0,0,0
2.12,318.412,150,291.6,180,0,0,0
2.14,322.012,150,295.2,180,0,0,0
2.16,325.612,150,298.8,180,0,0,0
2.18,329.212,150,302.4,180,0,0,0
2.2,332.812,150,306,180,0,0,0
2.22,336.412,150,309.6,180,0,0,0
2.24,340.012,150,313.2,180,0,0,0
2.26,343.612,150,316.8,180,0,0,0
2.28,347.212,150,320.4,180,0,0,0
2.3,350.812,150,324,180,0,0,0
2.32,354.412,150,327.6,180,0,0,0
2.34,358.012,150,331.2,180,0,0,0
2.36,361.612,150,334.8,180,0,0,0
2.38,365.212,150,338.4,180,0,0,0
2.4,368.812,150,342,180,0,0,0
2.42,372.412,150,345.6,180,0,0,0
2.44,376.012,150,349.2,180,0,0,0
2.46,379.612,150,352.8,180,0,0,0
2.48,383.212,150,356.4,180,0,0,0
2.5,386.812,150,360,180,0,0,0
2.52,390.412,150,363.6,180,0,0,0
2.54,394.012,150,367.2,180,0,0,0
2.56,397.612,150,370.8,180,0,0,0
2.58,401.212,150,374.4,180,0,0,0
2.6,404.812,150,378,180,0,0,0
2.62,408.412,150,381.6,180,0,0,0
2.64,412.012,150,385.2,180,0,0,0
2.66,415.612,150,388.8,180,0,0,0
2.68,419.212,150,392.4,180,0,0,0
2.7,422.812,150,396,180,0,0,0
2.72,426.412,150,399.6,180,0,0,0
2.74,430.012,150,403.2,180,0,0,0
2.76,433.612,150,406.8,180,0,0,0
2.78,437.212,150,410.4,180,0,0,0
2.8,440.812,150,414,180,0,0,0
2.82,444.412,150,417.6,180,0,0,0
2.84,448.012,150,421.2,180,0,0,0
2.86,451.612,150,424.8,180,0,0,0
2.88,455.212,150,428.4,180,0,0,0
2.9,458.812,150,432,180,0,0,0
2.92,462.412,150,435.6,180,0,0,0
2.94,466.012,150,439.2,180,0,0,0
2.96,469.612,150,442.8,180,0,0,0
2.98,473.212,150,446.4,180,0,0,0
3,476.812,150,450,180,0,0,0
3.02,480.412,150,453.6,180,0,0,0
3.04,484.012,150,457.2,180,0,0,0
3.06,487.612,150,460.8,180,0,0,0
3.08,491.212,150,464.4,180,0,0,0
3.1,494.812,150,468,180,0,0,0
3.12,498.412,150,471.6,180,0,0,0
3.14,502.012,150,475.2,180,0,0,0
3.16,505.612,150,478.8,180,0,0,0
3.18,509.212,150,482.4,180,-4.36557e-12,0,0
3.2,512.8,150,485.989,178,-180,0,0
3.22,516.324,150,489.512,174.4,-180,0,0
3.24,519.776,150,492.965,170.8,-180,0,0
3.26,523.156,150,496.344,167.2,-180,0,0
3.28,526.464,150,499.652,163.6,-180,0,0
3.3,529.7,150,502.889,160,-180,0,0
3.32,532.864,150,506.053,156.4,-180,0,0
3.34,535.956,150,509.144,152.8,-180,0,0
3.36,538.976,150,512.164,149.2,-180,0,0
3.38,541.924,150,515.112,145.6,-180,0,0
3.4,544.8,150,517.989,142,-180,0,0
3.42,547.604,150,520.792,138.4,-180,0,0
3.44,550.335,150,523.524,134.8,-180,0,0
3.46,552.996,150,526.184,131.2,-180,0,0
3.48,555.583,150,528.772,127.6,-180,0,0
3.5,558.099,150,531.288,124,-180,0,0
3.52,560.543,150,533.732,120.4,-180,0,0
3.54,562.916,150,536.104,116.8,-180,0,0
3.56,565.215,150,538.403,113.2,-180,0,0
3.58,567.443,150,540.631,109.6,-180,0,0
3.6,569.599,150,542.788,106,-180,0,0
3.62,571.683,150,544.872,102.4,-180,0,0
3.64,573.695,150,546.884,98.8,-180,0,0
3.66,575.635,150,548.823,95.2,-180,0,0
3.68,577.502,150,550.691,91.6,-180,0,0
3.7,579.298,150,552.486,88,-180,0,0
3.72,581.022,150,554.211,84.4,-180,0,0
3.74,582.675,150,555.863,80.8,-180,0,0
3.76,584.253,150,557.441,77.2,-180,0,0
3.78,585.764,150,558.952,73.6,-180,0,0
3.8,587.196,150,560.385,70,-180,0,0
3.82,588.561,150,561.749,66.4,-180,0,0
3.84,589.855,150,563.044,62.8,-180,0,0
3.86,591.071,150,564.26,59.2,-180,0,0
3.88,592.217,150,565.406,55.6,-180,0,0
3.9,593.292,150,566.481,52,-180,0,0
3.92,594.295,150,567.483,48.4,-180,0,0
3.94,595.225,150,568.414,44.8,-180,0,0
3.96,596.085,150,569.274,41.2,-180,0,0
3.98,596.88,150,570.068,37.6,-180,0,0
4,597.588,150,570.776,34,-180,0,0
4.02,598.22,150,571.408,30.4,-180,0,0
4.04,598.816,150,572.004,26.8,-180,0,0
4.06,599.274,150,572.462,23.2,-180,0,0
4.08,599.732,150,572.92,19.6,-180,0,0
4.1,599.968,150,573.157,16,-180,0,0
4.12,600.158,150,573.346,12.4,-180,0,0
4.14,600.348,150,573.536,8.8,-180,0,0
4.16,600.537,150,573.726,5.2,-180,0,0
4.18,600.727,150,573.916,1.6,-180,0,0
