"time","x","y","position","velocity","acceleration","jerk","heading"
0,26.8115,137.65,0,0,0,0,0
0.02,27.0013,137.65,0.1898,9.49,474.5,23725,0
0.04,27.191,137.65,0.3795,9.485,-0.25,-23737.5,0
0.06,27.3807,137.65,0.5692,9.485,8.9706e-12,12.5,0
0.08,27.5705,137.65,0.759,9.49,0.25,12.5,0
0.1,27.7602,137.65,0.9487,9.485,-0.25,-25,0
0.12,28.1457,137.65,1.3342,19.275,489.5,24487.5,0
0.14,28.6038,137.65,1.7923,22.905,181.5,-15400,0
0.16,29.1377,137.65,2.3262,26.695,189.5,400,0
0.18,29.7347,137.65,2.9232,29.85,157.75,-1587.5,0
0.2,30.4285,137.65,3.617,34.69,242,4212.5,0
0.22,31.1805,137.65,4.369,37.6,145.5,-4825,0
0.24,32.0026,137.65,5.1911,41.105,175.25,1487.5,0
0.26,32.8986,137.65,6.0871,44.8,184.75,475,0
0.28,33.8693,137.65,7.0578,48.535,186.75,100,0
0.3,34.9142,137.65,8.1027,52.245,185.5,-62.5,0
0.32,36.032,137.65,9.2205,55.89,182.25,-162.5,0
0.34,37.2213,137.65,10.4098,59.465,178.75,-175,0
0.36,38.4803,137.65,11.6688,62.95,174.25,-225,0
0.38,39.8076,137.65,12.9961,66.365,170.75,-175,0
0.4,41.2157,137.65,14.4042,70.405,202,1562.5,0
0.42,42.6893,137.65,15.8778,73.68,163.75,-1912.5,0
0.44,44.239,137.65,17.4275,77.485,190.25,1325,0
0.46,45.8561,137.65,19.0446,80.855,168.5,-1087.5,0
0.48,47.5499,137.65,20.7384,84.69,191.75,1162.5,0
0.5,49.3143,137.65,22.5028,88.22,176.5,-762.5,0
0.52,51.1498,137.65,24.3383,91.775,177.75,62.5,0
0.54,53.0573,137.65,26.2458,95.375,180,112.5,0
0.56,55.0371,137.65,28.2256,98.99,180.75,37.5,0
0.58,57.0892,137.65,30.2777,102.605,180.75,-3.04112e-10,0
0.6,59.2134,137.65,32.4019,106.21,180.25,-25,0
0.62,61.4093,137.65,34.5978,109.795,179.25,-50,0
0.64,63.6763,137.65,36.8648,113.35,177.75,-75,0
0.66,66.0166,137.65,39.2051,117.015,183.25,275,0
0.68,68.4289,137.65,41.6174,120.615,180,-162.5,0
0.7,70.912,137.65,44.1005,124.155,177,-150,0
0.72,73.4687,137.65,46.6572,127.835,184,350,0
0.74,76.0966,137.65,49.2851,131.395,178,-300,0
0.76,78.7956,137.65,51.9841,134.95,177.75,-12.5,0
0.78,81.5684,137.65,54.7569,138.64,184.5,337.5,0
0.8,84.4126,137.65,57.6011,142.21,178.5,-300,0
0.82,87.3286,137.65,60.5171,145.8,179.5,50,0
0.84,90.3165,137.65,63.505,149.395,179.75,12.5,0
0.86,93.3764,137.65,66.5649,152.995,180,12.5,0
0.88,96.5083,137.65,69.6968,156.595,180,1.77636e-09,0
0.9,99.7118,137.65,72.9003,160.175,179,-50,0
0.92,102.988,137.65,76.1765,163.81,181.75,137.5,0
0.94,106.336,137.65,79.5245,167.4,179.5,-112.5,0
0.96,109.756,137.65,82.9445,171,180,25,0
0.98,113.248,137.65,86.4365,174.6,180,2.27374e-09,0
1,116.812,137.65,90.0005,178.2,180,-1.84741e-09,0
1.02,120.412,137.65,93.6005,180,90,-4500,0
1.04,124.012,137.65,97.2005,180,-3.55271e-11,-4500,0
1.06,127.612,137.65,100.8,180,0,1.77636e-09,0
1.08,131.212,137.65,104.4,180,0,0,0
1.1,134.812,137.65,108.001,180,7.10543e-11,3.55271e-09,0
1.12,138.412,137.65,111.6,180,-7.10543e-11,-7.10543e-09,0
1.14,142.012,137.65,115.2,180,1.00897e-10,8.59757e-09,0
1.16,145.612,137.65,118.8,180,-1.00897e-10,-1.00897e-08,0
1.18,149.212,137.65,122.4,180,0,5.04485e-09,0
1.2,152.812,137.65,126.001,180,7.10543e-11,3.55271e-09,0
1.22,156.412,137.65,129.601,180,-7.10543e-11,-7.10543e-09,0
1.24,160.012,137.65,133.201,180,0,3.55271e-09,0
1.26,163.612,137.65,136.8,180,0,0,0
1.28,167.212,137.65,140.4,180,0,0,0
1.3,170.812,137.65,144.001,180,7.10543e-11,3.55271e-09,0
1.32,174.412,137.65,147.601,180,-7.10543e-11,-7.10543e-09,0
1.34,178.012,137.65,151.201,180,0,3.55271e-09,0
1.36,181.612,137.65,154.8,180,0,0,0
1.38,185.212,137.65,158.4,180,1.00897e-10,5.04485e-09,0
1.4,188.812,137.65,162.001,180,-2.98428e-11,-6.53699e-09,0
1.42,192.412,137.65,165.601,180,-7.10543e-11,-2.06057e-09,0
1.44,196.012,137.65,169.201,180,0,3.55271e-09,0
1.46,199.612,137.65,172.8,180,0,0,0
1.48,203.212,137.65,176.4,180,0,0,0
1.5,206.812,137.65,180.001,180,7.10543e-11,3.55271e-09,0
1.52,210.412,137.65,183.601,180,-7.10543e-11,-7.10543e-09,0
1.54,214.012,137.65,187.201,180,0,3.55271e-09,0
1.56,217.612,137.65,190.8,180,0,0,0
1.58,221.212,137.65,194.4,180,0,0,0
1.6,224.812,137.65,198.001,180,7.10543e-11,3.55271e-09,0
1.62,228.412,137.65,201.601,180,-7.10543e-11,-7.10543e-09,0
1.64,232.012,137.65,205.201,180,1.00897e-10,8.59757e-09,0
1.66,235.612,137.65,208.8,180,-1.00897e-10,-1.00897e-08,0
1.68,239.212,137.65,212.4,180,0,5.04485e-09,0
1.7,242.812,137.65,216.001,180,7.10543e-11,3.55271e-09,0
1.72,246.412,137.65,219.601,180,-7.10543e-11,-7.10543e-09,0
1.74,250.012,137.65,223.201,180,0,3.55271e-09,0
1.76,253.612,137.65,226.8,180,0,0,0
1.78,257.212,137.65,230.4,180,0,0,0
1.8,260.812,137.65,234.001,180,7.10543e-11,3.55271e-09,0
1.82,264.412,137.65,237.6,180,-1.42109e-10,-1.06581e-08,0
1.84,268.012,137.65,241.201,180,1.42109e-10,1.42109e-08,0
1.86,271.612,137.65,244.801,180,0,-7.10543e-09,0
1.88,275.212,137.65,248.4,180,-4.12115e-11,-2.06057e-09,0
1.9,278.812,137.65,252.001,180,4.12115e-11,4.12115e-09,0
1.92,282.412,137.65,255.6,180,-1.42109e-10,-9.166e-09,0
1.94,286.012,137.65,259.201,180,1.42109e-10,1.42109e-08,0
1.96,289.612,137.65,262.801,180,0,-7.10543e-09,0
1.98,293.212,137.65,266.401,180,-1.42109e-10,-7.10543e-09,0
2,296.812,137.65,270.001,180,1.42109e-10,1.42109e-08,0
2.02,300.412,137.65,273.601,180,-1.42109e-10,-1.42109e-08,0
2.04,304.012,137.65,277.201,180,1.42109e-10,1.42109e-08,0
2.06,307.612,137.65,280.801,180,0,-7.10543e-09,0
2.08,311.212,137.65,284.401,180,-1.42109e-10,-7.10543e-09,0
2.1,314.812,137.65,288.001,180,1.42109e-10,1.42109e-08,0
2.12,318.412,137.65,291.601,180,-1.42109e-10,-1.42109e-08,0
2.14,322.012,137.65,295.201,180,1.42109e-10,1.42109e-08,0
2.16,325.612,137.65,298.801,180,0,-7.10543e-09,0
2.18,329.212,137.65,302.401,180,-1.42109e-10,-7.10543e-09,0
2.2,332.812,137.65,306.001,180,1.42109e-10,1.42109e-08,0
2.22,336.412,137.65,309.601,180,-1.42109e-10,-1.42109e-08,0
2.24,340.012,137.65,313.201,180,1.42109e-10,1.42109e-08,0
2.26,343.612,137.65,316.801,180,2.00373e-10,2.91323e-09,0
2.28,347.212,137.65,320.401,180,-3.42482e-10,-2.71427e-08,0
2.3,350.812,137.65,324.001,180,1.42109e-10,2.42295e-08,0
2.32,354.412,137.65,327.601,180,-1.42109e-10,-1.42109e-08,0
2.34,358.012,137.65,331.201,180,1.42109e-10,1.42109e-08,0
2.36,361.612,137.65,334.801,180,0,-7.10543e-09,0
2.38,365.212,137.65,338.401,180,-1.42109e-10,-7.10543e-09,0
2.4,368.812,137.65,342.001,180,1.42109e-10,1.42109e-08,0
2.42,372.412,137.65,345.601,180,-1.42109e-10,-1.42109e-08,0
2.44,376.012,137.65,349.201,180,1.42109e-10,1.42109e-08,0
2.46,379.612,137.65,352.801,180,0,-7.10543e-09,0
2.48,383.212,137.65,356.401,180,-1.42109e-10,-7.10543e-09,0
2.5,386.812,137.65,360.001,180,1.42109e-10,1.42109e-08,0
2.52,390.412,137.65,363.601,180,-1.42109e-10,-1.42109e-08,0
2.54,394.012,137.65,367.201,180,1.42109e-10,1.42109e-08,0
2.56,397.612,137.65,370.801,180,0,-7.10543e-09,0
2.58,401.212,137.65,374.401,180,-1.42109e-10,-7.10543e-09,0
2.6,404.812,137.65,378.001,180,1.42109e-10,1.42109e-08,0
2.62,408.412,137.65,381.601,180,-1.42109e-10,-1.42109e-08,0
2.64,412.012,137.65,385.201,180,1.42109e-10,1.42109e-08,0
2.66,415.612,137.65,388.801,180,0,-7.10543e-09,0
2.68,419.212,137.65,392.401,180,-1.42109e-10,-7.10543e-09,0
2.7,422.812,137.65,396.001,180,1.42109e-10,1.42109e-08,0
2.72,426.412,137.65,399.601,180,-1.42109e-10,-1.42109e-08,0
2.74,430.012,137.65,403.201,180,1.42109e-10,1.42109e-08,0
2.76,433.612,137.65,406.801,180,2.00373e-10,2.91323e-09,0
2.78,437.212,137.65,410.401,180,-3.42482e-10,-2.71427e-08,0
2.8,440.812,137.65,414.001,180,1.42109e-10,2.42295e-08,0
2.82,444.412,137.65,417.601,180,-1.42109e-10,-1.42109e-08,0
2.84,448.012,137.65,421.201,180,1.42109e-10,1.42109e-08,0
2.86,451.612,137.65,424.801,180,0,-7.10543e-09,0
2.88,455.212,137.65,428.401,180,-1.42109e-10,-7.10543e-09,0
2.9,458.812,137.65,432.001,180,1.42109e-10,1.42109e-08,0
2.92,462.412,137.65,435.601,180,-1.42109e-10,-1.42109e-08,0
2.94,466.012,137.65,439.201,180,1.42109e-10,1.42109e-08,0
2.96,469.612,137.65,442.801,180,0,-7.10543e-09,0
2.98,473.212,137.65,446.401,180,-1.42109e-10,-7.10543e-09,0
3,476.812,137.65,450.001,180,1.42109e-10,1.42109e-08,0
3.02,480.412,137.65,453.601,180,-1.42109e-10,-1.42109e-08,0
3.04,484.012,137.65,457.201,180,1.42109e-10,1.42109e-08,0
3.06,487.612,137.65,460.801,180,0,-7.10543e-09,0
3.08,491.212,137.65,464.401,180,-1.42109e-10,-7.10543e-09,0
3.1,494.812,137.65,468.001,180,1.42109e-10,1.42109e-08,0
3.12,498.412,137.65,471.601,180,-1.42109e-10,-1.42109e-08,0
3.14,502.012,137.65,475.201,180,1.42109e-10,1.42109e-08,0
3.16,505.612,137.65,478.801,180,0,-7.10543e-09,0
3.18,509.212,137.65,482.401,180,-1.42109e-10,-7.10543e-09,0
3.2,512.8,137.65,485.988,179.4,-30,-1500,0
3.22,516.324,137.65,489.512,176.2,-160,-6500,0
3.24,519.776,137.65,492.964,172.6,-180,-1000,0
3.26,523.156,137.65,496.344,169,-180,9.10774e-09,0
3.28,526.464,137.65,499.653,165.4,-180,-4.3471e-09,0
3.3,529.7,137.65,502.889,161.8,-180,-1.90425e-08,0
3.32,532.864,137.65,506.053,158.2,-180,1.42109e-08,0
3.34,535.956,137.65,509.145,154.6,-180,0,0
3.36,538.976,137.65,512.165,151,-180,0,0
3.38,541.924,137.65,515.113,147.4,-180,0,0
3.4,544.8,137.65,517.989,143.8,-180,7.10543e-11,0
3.42,547.604,137.65,520.793,140.2,-180,1.41398e-08,0
3.44,550.335,137.65,523.524,136.55,-182.5,-125,0
3.46,552.996,137.65,526.185,133.05,-175,375,0
3.48,555.583,137.65,528.772,129.35,-185,-500,0
3.5,558.099,137.65,531.288,125.8,-177.5,375,0
3.52,560.543,137.65,533.732,122.2,-180,-125,0
3.54,562.916,137.65,536.105,118.65,-177.5,125,0
3.56,565.215,137.65,538.404,114.95,-185,-375,0
3.58,567.443,137.65,540.632,111.4,-177.5,375,0
3.6,569.599,137.65,542.788,107.8,-180,-125,0
3.62,571.683,137.65,544.872,104.2,-180,-2.84217e-08,0
3.64,573.695,137.65,546.884,100.6,-180,2.84572e-08,0
3.66,575.635,137.65,548.824,97,-180,-2.84572e-08,0
3.68,577.502,137.65,550.691,93.35,-182.5,-125,0
3.7,579.298,137.65,552.487,89.8,-177.5,250,0
3.72,581.022,137.65,554.211,86.2,-180,-125,0
3.74,582.675,137.65,555.864,82.65,-177.5,125,0
3.76,584.253,137.65,557.442,78.9,-187.5,-500,0
3.78,585.764,137.65,558.953,75.55,-167.5,1000,0
3.8,587.196,137.65,560.385,71.6,-197.5,-1500,0
3.82,588.561,137.65,561.75,68.25,-167.5,1500,0
3.84,589.855,137.65,563.044,64.7,-177.5,-500,0
3.86,591.071,137.65,564.26,60.8,-195,-875,0
3.88,592.217,137.65,565.406,57.3,-175,1000,0
3.9,593.292,137.65,566.481,53.75,-177.5,-125,0
3.92,594.295,137.65,567.484,50.15,-180,-125,0
3.94,595.225,137.65,568.414,46.5,-182.5,-125,0
3.96,596.085,137.65,569.274,43,-175,375,0
3.98,596.88,137.65,570.069,39.75,-162.5,625,0
4,597.588,137.65,570.777,35.4,-217.5,-2750,0
4.02,598.22,137.65,571.409,31.6,-190,1375,0
4.04,598.816,137.65,572.005,29.8,-90,5000,0
4.06,599.274,137.65,572.463,22.9,-345,-12750,0
4.08,599.732,137.65,572.921,22.9,-5.08038e-11,17250,0
4.1,599.968,137.65,573.157,11.8,-555,-27750,0
4.12,600.158,137.65,573.347,9.5,-115,22000,0
4.14,600.348,137.65,573.537,9.5,-2.63078e-10,5750,0
4.16,600.537,137.65,573.726,9.45,-2.5,-125,0
4.18,600.727,137.65,573.916,9.5,2.5,250,0
