"time","x","y","position","velocity","acceleration","jerk","heading"
0,381.8,92.4,0,0,57,0,0
0.02,381.839,92.301,0.106405,1.14,57,0,-68.4008
0.04,381.879,92.201,0.214108,2.28,57,0,-68.4017
0.06,381.918,92.102,0.320513,3.42,57,0,-68.4025
0.08,381.957,92.003,0.426918,4.56,57,0,-68.4034
0.1,381.997,91.904,0.533693,5.7,57,0,-68.4042
0.12,382.036,91.804,0.641029,6.84,57,0,-68.4051
0.14,382.075,91.705,0.747434,7.98,57,0,-68.4059
0.16,382.114,91.606,0.853839,9.12,57,0,-68.4068
0.18,382.154,91.507,0.960615,10.26,57,0,-68.4076
0.2,382.228,91.318,1.16359,11.4,57,0,-68.4115
0.22,382.323,91.079,1.42077,12.54,57,0,-68.417
0.24,382.418,90.839,1.67889,13.68,57,0,-68.4226
0.26,382.513,90.599,1.93701,14.82,57,0,-68.4281
0.28,382.629,90.305,2.25307,15.96,57,0,-68.4381
0.3,382.753,89.992,2.58973,17.1,57,0,-68.4495
0.32,382.876,89.68,2.9251,18.24,57,0,-68.461
0.34,383.017,89.322,3.30987,19.38,57,0,-68.4776
0.36,383.163,88.951,3.70856,20.52,57,0,-68.4957
0.38,383.315,88.567,4.12155,21.66,57,0,-68.5157
0.4,383.48,88.146,4.57373,22.8,57,0,-68.541
0.42,383.647,87.723,5.02851,23.94,57,0,-68.5666
0.44,383.829,87.257,5.52879,25.08,57,0,-68.5992
0.46,384.013,86.789,6.03166,26.22,57,0,-68.6322
0.48,384.211,86.282,6.57595,27.36,57,0,-68.6721
0.5,384.412,85.7669,7.12888,28.5,57,0,-68.7136
0.52,384.624,85.2222,7.71338,29.64,57,0,-68.7607
0.54,384.842,84.6593,8.31702,30.78,57,0,-68.8114
0.56,385.067,84.079,8.93941,31.92,57,0,-68.8654
0.58,385.302,83.4684,9.59367,33.06,57,0,-68.9254
0.6,385.543,82.8423,10.2646,34.2,57,0,-68.9885
0.62,385.791,82.1964,10.9564,35.34,57,0,-69.0553
0.64,386.049,81.522,11.6785,36.48,57,0,-69.1275
0.66,386.312,80.8293,12.4194,37.62,57,0,-69.2028
0.68,386.582,80.1171,13.1811,38.76,57,0,-69.2814
0.7,386.859,79.3832,13.9655,39.9,57,0,-69.3634
0.72,387.145,78.6233,14.7775,41.04,57,0,-69.4487
0.74,387.437,77.843,15.6106,42.18,57,0,-69.5363
0.76,387.735,77.0418,16.4654,43.32,57,0,-69.6259
0.78,388.04,76.2192,17.3428,44.46,57,0,-69.717
0.8,388.351,75.3749,18.2425,45.6,57,0,-69.8091
0.82,388.669,74.5086,19.1653,46.74,57,0,-69.9016
0.84,388.993,73.6203,20.1109,47.88,57,0,-69.9937
0.86,389.323,72.7098,21.0793,49.02,57,0,-70.0848
0.88,389.661,71.7772,22.0713,50.16,57,0,-70.1739
0.9,390.004,70.8224,23.0859,51.3,57,0,-70.2597
0.92,390.354,69.8454,24.1237,52.44,57,0,-70.3412
0.94,390.71,68.8464,25.1842,53.58,57,0,-70.4175
0.96,391.072,67.8255,26.2674,54.72,57,0,-70.4876
0.98,391.441,66.7827,27.3735,55.86,46.3545,0,-70.5501
1,391.816,65.7203,28.5002,56.7489,14.25,0,-70.6038
1.02,392.193,64.6469,29.6379,57,0,0,-70.6471
1.04,392.57,63.5712,30.7777,57,0,0,-70.6786
1.06,392.947,62.4954,31.9176,57,0,0,-70.6976
1.08,393.324,61.4194,33.0578,57,0,0,-70.7024
1.1,393.701,60.3435,34.1978,57,0,0,-70.6912
1.12,394.078,59.2677,35.3378,57,0,0,-70.6642
1.14,394.456,58.1921,36.4779,57,0,0,-70.6211
1.16,394.835,57.1169,37.6179,57,0,0,-70.561
1.18,395.215,56.0421,38.7579,57,0,0,-70.4831
1.2,395.596,54.9679,39.8977,57,0,0,-70.3863
1.22,395.98,53.8944,41.0378,57,0,0,-70.2692
1.24,396.366,52.8217,42.1778,57,0,0,-70.1294
1.26,396.755,51.7501,43.3178,57,0,0,-69.9676
1.28,397.147,50.6797,44.4577,57,0,0,-69.7825
1.3,397.543,49.6106,45.5978,57,0,0,-69.5728
1.32,397.943,48.5431,46.7378,57,0,0,-69.3373
1.34,398.348,47.4773,47.878,57,0,0,-69.0745
1.36,398.757,46.4135,49.0177,57,0,0,-68.7814
1.38,399.173,45.3519,50.1579,57,0,0,-68.4547
1.4,399.595,44.2929,51.2979,57,0,0,-68.0956
1.42,400.023,43.2366,52.4376,57,0,0,-67.7021
1.44,400.46,42.1834,53.5778,57,0,0,-67.2723
1.46,400.904,41.1336,54.7177,57,0,0,-66.8038
1.48,401.358,40.0877,55.8579,57,0,0,-66.2945
1.5,401.821,39.0461,56.9977,57,0,0,-65.7269
1.52,402.295,38.0092,58.1378,57,0,0,-65.1331
1.54,402.78,36.9775,59.2778,57,0,0,-64.4713
1.56,403.277,35.9516,60.4178,57,0,0,-63.7683
1.58,403.787,34.9323,61.5576,57,0,0,-63.0065
1.6,404.312,33.92,62.6979,57,0,0,-62.177
1.62,404.851,32.9157,63.8377,57,0,0,-61.2972
1.64,405.407,31.9203,64.9779,57,0,0,-60.3286
1.66,405.979,30.9346,66.1175,57,0,0,-59.3038
1.68,406.57,29.9598,67.2575,57,0,0,-58.185
1.7,407.181,28.997,68.3978,57,0,0,-56.9945
1.72,407.812,28.0476,69.5377,57,0,0,-55.7131
1.74,408.465,27.1131,70.6778,57,0,0,-54.355
1.76,409.14,26.1949,71.8174,57,0,0,-52.8806
1.78,409.84,25.2949,72.9576,57,0,0,-51.3315
1.8,410.565,24.415,74.0977,57,0,0,-49.6564
1.82,411.315,23.5572,75.2371,57,0,0,-47.888
1.84,412.093,22.7236,76.3774,57,0,0,-46.0218
1.86,412.898,21.9166,77.5172,57,0,0,-44.0453
1.88,413.731,21.1385,78.6571,57,0,0,-41.9815
1.9,414.592,20.3917,79.7969,57,0,0,-39.8198
1.92,415.482,19.6785,80.9374,57,0,0,-37.5952
1.94,416.399,19.0013,82.0773,57,0,0,-35.2704
1.96,417.343,18.3622,83.2173,57,0,0,-32.9026
1.98,418.312,17.7631,84.3566,57,0,0,-30.4935
2,419.307,17.2056,85.4971,57,0,0,-28.0593
2.02,420.324,16.6909,86.6369,57,0,0,-25.6216
2.04,421.362,16.2199,87.7768,57,0,0,-23.2004
2.06,422.419,15.7931,88.9167,57,0,0,-20.8024
2.08,423.493,15.4103,90.0569,57,0,0,-18.4653
2.1,424.581,15.0713,91.1965,57,0,0,-16.1908
2.12,425.682,14.775,92.3366,57,0,0,-13.9872
2.14,426.793,14.5205,93.4764,57,0,0,-11.8824
2.16,427.912,14.3061,94.6158,57,0,0,-9.86187
2.18,429.039,14.1305,95.7564,57,21.597,0,-7.94761
2.2,430.166,13.9919,96.8919,56.5511,53.9743,0,-6.12006
2.22,431.282,13.8893,98.0126,55.4644,57,0,-4.45165
2.24,432.377,13.8198,99.1098,54.3244,57,0,-2.88179
2.26,433.451,13.7794,100.185,53.1844,57,0,-1.47262
2.28,434.503,13.7653,101.237,52.0444,57,0,-0.15186
2.3,435.532,13.7739,102.266,50.9044,57,0,1.04859
2.32,436.538,13.8027,103.272,49.7644,57,0,2.1578
2.34,437.521,13.849,104.256,48.6244,57,0,3.17301
2.36,438.48,13.9106,105.217,47.4844,57,0,4.10188
2.38,439.416,13.9852,106.156,46.3444,57,0,4.95907
2.4,440.328,14.0711,107.072,45.2044,57,0,5.73394
2.42,441.216,14.1662,107.965,44.0644,57,0,6.45618
2.44,442.078,14.269,108.833,42.9244,57,0,7.11018
2.46,442.917,14.3783,109.679,41.7844,57,0,7.70252
2.48,443.732,14.4927,110.502,40.6444,57,0,8.24309
2.5,444.525,14.6113,111.304,39.5044,57,0,8.7381
2.52,445.297,14.7332,112.086,38.3644,57,0,9.19202
2.54,446.042,14.8565,112.841,37.2244,57,0,9.59857
2.56,446.761,14.9808,113.571,36.0844,57,0,9.96544
2.58,447.461,15.106,114.282,34.9444,57,0,10.3026
2.6,448.141,15.2317,114.973,33.8044,57,0,10.6121
2.62,448.789,15.3547,115.633,32.6644,57,0,10.8794
2.64,449.419,15.4774,116.275,31.5244,57,0,11.127
2.66,450.029,15.5988,116.897,30.3844,57,0,11.3519
2.68,450.608,15.7161,117.487,29.2444,57,0,11.545
2.7,451.176,15.8331,118.067,28.1044,57,0,11.7274
2.72,451.708,15.9445,118.611,26.9644,57,0,11.8791
2.74,452.228,16.0546,119.142,25.8244,57,0,12.0215
2.76,452.717,16.1594,119.642,24.6844,57,0,12.1407
2.78,453.193,16.2622,120.129,23.5444,57,0,12.2513
2.8,453.635,16.3586,120.582,22.4044,57,0,12.3409
2.82,454.072,16.4547,121.029,21.2644,57,0,12.4284
2.84,454.461,16.5407,121.428,20.1244,57,0,12.4913
2.86,454.85,16.6271,121.826,18.9844,57,0,12.5542
2.88,455.204,16.7062,122.189,17.8444,57,0,12.6034
2.9,455.532,16.7796,122.525,16.7044,57,0,12.642
2.92,455.86,16.8533,122.861,15.5644,57,0,12.6807
2.94,456.143,16.917,123.151,14.4244,57,0,12.7075
2.96,456.394,16.9737,123.409,13.2844,57,0,12.7261
2.98,456.645,17.0306,123.666,12.1444,57,0,12.7447
3,456.897,17.0875,123.924,11.0044,57,0,12.7633
3.02,457.043,17.1207,124.074,9.86442,57,0,12.7709
3.04,457.147,17.1443,124.181,8.72442,57,0,12.7742
3.06,457.251,17.168,124.287,7.58442,57,0,12.7774
3.08,457.356,17.1916,124.395,6.44442,57,0,12.7806
3.1,457.46,17.2152,124.502,5.30442,57,0,12.7838
3.12,457.564,17.2389,124.608,4.16442,57,0,12.787
3.14,457.668,17.2625,124.715,3.02442,57,0,12.7902
3.16,457.772,17.2862,124.822,1.88442,57,0,12.7935
3.18,457.876,17.3098,124.928,0.744423,57,0,12.7967
