"time","x","y","position","velocity","acceleration","jerk","heading"
0,493.661,20.9482,0,0,171,0,-180
0.02,493.476,20.9482,0.184932,3.42,171,0,179.997
0.04,493.291,20.9482,0.369865,6.84,171,0,179.993
0.06,493.106,20.9482,0.554797,10.26,171,0,179.99
0.08,492.921,20.9482,0.73973,13.68,171,0,179.986
0.1,492.736,20.9483,0.924662,17.1,171,0,179.983
0.12,492.396,20.9484,1.26458,20.52,171,0,179.968
0.14,491.95,20.9487,1.71105,23.94,171,0,179.945
0.16,491.456,20.9492,2.20528,27.36,171,0,179.914
0.18,490.874,20.9503,2.78713,30.78,171,0,179.866
0.2,490.223,20.9521,3.43767,34.2,171,0,179.799
0.22,489.516,20.955,4.14511,37.62,171,0,179.714
0.24,488.733,20.9596,4.9285,41.04,171,0,179.6
0.26,487.874,20.9666,5.78742,44.46,171,0,179.452
0.28,486.95,20.9767,6.71111,47.88,171,0,179.268
0.3,485.959,20.9912,7.70198,51.3,171,0,179.043
0.32,484.901,21.0112,8.76056,54.72,105.972,0,178.769
0.34,483.787,21.0382,9.87493,56.8099,10.6933,0,178.443
0.36,482.649,21.0727,11.0132,57,0,0,178.071
0.38,481.51,21.1151,12.1532,57,0,0,177.651
0.4,480.371,21.1663,13.2932,57,0,0,177.188
0.42,479.233,21.2271,14.4332,57,0,0,176.682
0.44,478.095,21.2983,15.5732,57,0,0,176.132
0.46,476.958,21.3809,16.7132,57,0,0,175.537
0.48,475.822,21.4757,17.8532,57,0,0,174.895
0.5,474.687,21.5838,18.9932,57,0,0,174.205
0.52,473.554,21.7061,20.1332,57,0,0,173.459
0.54,472.422,21.8435,21.2732,57,0,0,172.657
0.56,471.292,21.9973,22.4132,57,0,0,171.798
0.58,470.165,22.1684,23.5532,57,0,0,170.891
0.6,469.041,22.3578,24.6932,57,0,0,169.929
0.62,467.92,22.5667,25.8332,57,0,0,168.9
0.64,466.804,22.7963,26.9732,57,0,0,167.827
0.66,465.692,23.0476,28.1132,57,0,0,166.663
0.68,464.585,23.3217,29.2532,57,0,0,165.458
0.7,463.485,23.62,30.3932,57,0,0,164.168
0.72,462.392,23.9433,31.5332,57,0,0,162.824
0.74,461.307,24.2929,32.6732,57,0,0,161.41
0.76,460.231,24.6698,33.8132,57,0,0,159.934
0.78,459.165,25.0748,34.9532,57,0,0,158.394
0.8,458.111,25.509,36.0932,57,0,0,156.797
0.82,457.07,25.973,37.2332,57,0,0,155.129
0.84,456.043,26.4675,38.3732,57,0,0,153.418
0.86,455.031,26.993,39.5132,57,0,0,151.65
0.88,454.037,27.5498,40.6532,57,0,0,149.847
0.9,453.06,28.138,41.7932,57,0,0,148.006
0.92,452.103,28.7575,42.9332,57,0,0,146.143
0.94,451.167,29.408,44.0732,57,0,0,144.253
0.96,450.253,30.0892,45.2132,57,0,0,142.36
0.98,449.362,30.8002,46.3532,57,0,0,140.466
1,448.495,31.5402,47.4932,57,0,0,138.582
1.02,447.653,32.3083,48.6332,57,0,0,136.718
1.04,446.835,33.1032,49.7732,57,0,0,134.883
1.06,446.044,33.9236,50.9132,57,0,0,133.078
1.08,445.278,34.7683,52.0532,57,0,0,131.327
1.1,444.539,35.6357,53.1932,57,0,0,129.614
1.12,443.825,36.5244,54.3332,57,0,0,127.97
1.14,443.137,37.4331,55.4732,57,0,0,126.374
1.16,442.473,38.3601,56.6132,57,0,0,124.844
1.18,441.834,39.3043,57.7532,57,0,0,123.365
1.2,441.219,40.2641,58.8932,57,0,0,121.969
1.22,440.628,41.2385,60.0332,57,0,0,120.624
1.24,440.058,42.226,61.1732,57,0,0,119.357
1.26,439.51,43.2257,62.3132,57,0,0,118.148
1.28,438.983,44.2364,63.4532,57,0,0,117.002
1.3,438.475,45.2571,64.5932,57,0,0,115.912
1.32,437.987,46.2871,65.7332,57,0,0,114.89
1.34,437.516,47.3254,66.8732,57,0,0,113.913
1.36,437.063,48.3713,68.0132,57,0,0,113.008
1.38,436.625,49.4241,69.1532,57,0,0,112.144
1.4,436.203,50.4831,70.2932,57,0,0,111.34
1.42,435.796,51.5478,71.4332,57,0,0,110.578
1.44,435.402,52.6177,72.5732,57,0,0,109.864
1.46,435.022,53.6922,73.7132,57,0,0,109.191
1.48,434.653,54.771,74.8532,57,0,0,108.562
1.5,434.296,55.8537,75.9932,57,0,0,107.969
1.52,433.95,56.9398,77.1332,57,0,0,107.421
1.54,433.614,58.0291,78.2732,57,0,0,106.902
1.56,433.287,59.1214,79.4132,57,0,0,106.418
1.58,432.969,60.2162,80.5532,57,0,0,105.968
1.6,432.66,61.3134,81.6932,57,0,0,105.55
1.62,432.358,62.4127,82.8332,57,0,0,105.159
1.64,432.064,63.514,83.9732,57,0,0,104.797
1.66,431.776,64.6171,85.1132,57,0,0,104.462
1.68,431.494,65.7217,86.2532,57,0,0,104.152
1.7,431.218,66.8279,87.3932,57,0,0,103.866
1.72,430.948,67.9353,88.5332,57,0,0,103.602
1.74,430.682,69.0439,89.6732,57,0,0,103.358
1.76,430.421,70.1536,90.8132,57,0,0,103.135
1.78,430.164,71.2643,91.9532,57,0,0,102.93
1.8,429.911,72.3758,93.0932,57,0,0,102.745
1.82,429.661,73.4881,94.2332,57,0,0,102.578
1.84,429.414,74.601,95.3732,57,0,0,102.427
1.86,429.17,75.7146,96.5132,57,0,0,102.292
1.88,428.929,76.8288,97.6532,57,0,0,102.171
1.9,428.69,77.9434,98.7932,57,0,0,102.064
1.92,428.452,79.0584,99.9332,57,0,0,101.97
1.94,428.217,80.1738,101.073,57,0,0,101.888
1.96,427.983,81.2895,102.213,57,0,0,101.819
1.98,427.75,82.4055,103.353,57,0,0,101.76
2,427.518,83.5217,104.493,57,0,0,101.711
2.02,427.287,84.638,105.633,57,0,0,101.671
2.04,427.057,85.7545,106.773,57,0,0,101.639
2.06,426.827,86.8711,107.913,57,0,0,101.616
2.08,426.598,87.9878,109.053,57,0,0,101.601
2.1,426.368,89.1045,110.193,57,0,0,101.592
2.12,426.139,90.2213,111.333,57,0,0,101.589
2.14,425.91,91.3381,112.473,57,0,0,101.591
2.16,425.681,92.4548,113.613,57,0,0,101.597
2.18,425.452,93.5715,114.753,57,-64.4023,0,101.606
2.2,425.225,94.6765,115.881,55.6601,-160.854,0,101.619
2.22,425.007,95.7371,116.964,52.4205,-171,0,101.632
2.24,424.802,96.7308,117.979,49.0005,-171,0,101.646
2.26,424.612,97.6551,118.922,45.5805,-171,0,101.66
2.28,424.435,98.5098,119.795,42.1605,-171,0,101.672
2.3,424.273,99.2962,120.598,38.7405,-171,0,101.683
2.32,424.123,100.019,121.336,35.3205,-171,0,101.693
2.34,423.984,100.691,122.022,31.9005,-171,0,101.701
2.36,423.866,101.26,122.604,28.4805,-171,0,101.707
2.38,423.757,101.788,123.143,25.0605,-171,0,101.712
2.4,423.666,102.225,123.589,21.6405,-171,0,101.716
2.42,423.579,102.642,124.015,18.2205,-171,0,101.719
2.44,423.542,102.823,124.2,14.8005,-171,0,101.72
2.46,423.504,103.004,124.385,11.3805,-171,0,101.721
2.48,423.467,103.185,124.57,7.96054,-171,0,101.721
2.5,423.429,103.366,124.754,4.54054,-171,0,101.722
2.52,423.392,103.547,124.939,1.12054,-171,0,101.723
