"time","x","y","position","velocity","acceleration","jerk","heading"
0,465.388,43.0398,0,0,0,0,-160.346
0.02,465.209,42.976,0.189848,9.49241,474.62,23731,-160.347
0.04,465.032,42.9123,0.378506,9.43287,-2.97701,-23879.9,-160.349
0.06,464.853,42.8486,0.56832,9.49073,2.89301,293.501,-160.35
0.08,464.674,42.7849,0.758135,9.49073,-5.59739e-09,-144.651,-160.351
0.1,464.496,42.7212,0.947734,9.47995,-0.53887,-26.9435,-160.353
0.12,464.134,42.592,1.33188,19.2074,486.373,24345.6,-160.359
0.14,463.705,42.4388,1.78759,22.7857,178.912,-15373.1,-160.368
0.16,463.204,42.2603,2.31883,26.5616,188.8,494.384,-160.381
0.18,462.646,42.0612,2.91161,29.639,153.87,-1746.47,-160.399
0.2,461.998,41.8307,3.5997,34.4048,238.288,4220.9,-160.427
0.22,461.296,41.5815,4.34451,37.2404,141.779,-4825.45,-160.462
0.24,460.531,41.31,5.15611,40.5801,166.984,1260.25,-160.507
0.26,459.698,41.0156,6.03982,44.1853,180.258,663.707,-160.565
0.28,458.796,40.6982,6.99541,47.7797,179.723,-26.7667,-160.637
0.3,457.829,40.359,8.02086,51.2724,174.632,-254.552,-160.727
0.32,456.796,39.9987,9.11471,54.6923,170.995,-181.844,-160.836
0.34,455.707,39.6218,10.2668,57.6059,145.683,-1265.63,-160.965
0.36,454.602,39.242,11.4355,58.4333,41.3674,-5215.76,-161.111
0.38,453.499,38.8662,12.6009,58.2704,-8.14554,-2475.64,-161.272
0.4,452.398,38.4948,13.7629,58.0999,-8.52445,-18.9452,-161.448
0.42,451.3,38.1282,14.9206,57.8852,-10.7315,-110.355,-161.643
0.44,450.202,37.7665,16.0759,57.7663,-5.94758,239.198,-161.852
0.46,449.108,37.4099,17.2272,57.5636,-10.1328,-209.259,-162.078
0.48,448.015,37.0588,18.3748,57.3787,-9.24427,44.4248,-162.319
0.5,446.925,36.714,19.518,57.1595,-10.9647,-86.0205,-162.582
0.52,445.835,36.3749,20.6593,57.0678,-4.5846,319.004,-162.855
0.54,444.748,36.0425,21.7964,56.853,-10.738,-307.67,-163.149
0.56,443.663,35.7169,22.929,56.6307,-11.1167,-18.9363,-163.46
0.58,442.579,35.3981,24.0587,56.4845,-7.30843,190.415,-163.785
0.6,441.499,35.0872,25.1832,56.2269,-12.8801,-278.582,-164.134
0.62,440.418,34.7838,26.3059,56.1327,-4.71158,408.424,-164.496
0.64,439.341,34.4887,27.4225,55.8327,-14.9959,-514.218,-164.881
0.66,438.264,34.2018,28.537,55.7236,-5.4559,477.002,-165.28
0.68,437.19,33.9235,29.6462,55.4617,-13.0941,-381.909,-165.698
0.7,436.117,33.6542,30.7528,55.3272,-6.72895,318.256,-166.132
0.72,435.046,33.3942,31.8548,55.1009,-11.3157,-229.336,-166.586
0.74,433.975,33.1435,32.9545,54.9869,-5.69963,280.802,-167.054
0.76,432.907,32.9024,34.0496,54.7545,-11.6184,-295.937,-167.538
0.78,431.839,32.6711,35.1427,54.6529,-5.07889,326.974,-168.035
0.8,430.771,32.4497,36.2332,54.5244,-6.42648,-67.3795,-168.543
0.82,429.704,32.2383,37.3212,54.3996,-6.24144,9.25212,-169.062
0.84,428.636,32.0371,38.4073,54.309,-4.52587,85.7786,-169.589
0.86,427.567,31.8458,39.4936,54.315,0.297824,241.185,-170.12
0.88,426.497,31.6646,40.5786,54.2484,-3.33216,-181.499,-170.653
0.9,425.425,31.4933,41.6642,54.2792,1.54462,243.839,-171.184
0.92,424.351,31.3317,42.7506,54.3198,2.02702,24.1198,-171.708
0.94,423.272,31.1795,43.8401,54.4773,7.87506,292.402,-172.224
0.96,422.19,31.0367,44.9315,54.5666,4.46406,-170.55,-172.725
0.98,421.102,30.9026,46.0274,54.7952,11.4305,348.323,-173.208
1,420.01,30.7771,47.1268,54.9701,8.74586,-134.233,-173.674
1.02,418.908,30.6592,48.2353,55.4278,22.8828,706.848,-174.102
1.04,417.801,30.549,49.3479,55.6304,10.1341,-637.435,-174.507
1.06,416.685,30.4456,50.4683,56.0186,19.4108,463.834,-174.877
1.08,415.561,30.3483,51.5964,56.4059,19.3644,-2.31783,-175.208
1.1,414.43,30.2567,52.731,56.7304,16.223,-157.071,-175.511
1.12,413.286,30.1695,53.8787,57.383,32.63,820.35,-175.756
1.14,412.135,30.0864,55.0329,57.7101,16.356,-813.7,-175.969
1.16,410.974,30.0067,56.1961,58.1591,22.4509,304.743,-176.139
1.18,409.805,29.9293,57.3683,58.6121,22.6498,9.94437,-176.266
1.2,408.628,29.8536,58.5479,58.9782,18.3029,-217.346,-176.363
1.22,407.439,29.7786,59.7386,59.5382,27.9981,484.763,-176.403
1.24,406.244,29.7038,60.9362,59.8768,16.9348,-553.164,-176.416
1.26,405.041,29.6285,62.1413,60.2544,18.8761,97.0623,-176.394
1.28,403.833,29.552,63.3523,60.5519,14.8745,-200.08,-176.34
1.3,402.618,29.4736,64.5698,60.876,16.2059,66.5711,-176.261
1.32,401.397,29.3927,65.7936,61.1883,15.6143,-29.5808,-176.149
1.34,400.172,29.309,67.0212,61.3799,9.58043,-301.693,-176.02
1.36,398.942,29.2219,68.254,61.6382,12.9147,166.713,-175.868
1.38,397.71,29.1312,69.4898,61.7902,7.59959,-265.754,-175.703
1.4,396.474,29.0365,70.7293,61.9761,9.29596,84.8182,-175.522
1.42,395.237,28.9376,71.9703,62.0492,3.65713,-281.941,-175.331
1.44,393.997,28.8342,73.214,62.1849,6.78245,156.266,-175.129
1.46,392.758,28.7263,74.4579,62.196,0.556261,-311.31,-174.923
1.48,391.518,28.6139,75.7033,62.2689,3.64551,154.462,-174.712
1.5,390.277,28.4968,76.9495,62.3112,2.11405,-76.5726,-174.499
1.52,389.037,28.375,78.1954,62.2938,-0.871043,-149.255,-174.285
1.54,387.798,28.2487,79.4415,62.3049,0.556577,71.381,-174.072
1.56,386.559,28.1177,80.6864,62.2461,-2.94112,-174.885,-173.862
1.58,385.322,27.9823,81.9311,62.2367,-0.466697,123.721,-173.655
1.6,384.086,27.8426,83.1755,62.2174,-0.967506,-25.0404,-173.452
1.62,382.851,27.6988,84.418,62.1264,-4.54831,-179.04,-173.255
1.64,381.62,27.5509,85.6585,62.0254,-5.05063,-25.1165,-173.065
1.66,380.39,27.3993,86.898,61.9729,-2.62476,121.294,-172.882
1.68,379.162,27.244,88.1354,61.8714,-5.07536,-122.53,-172.706
1.7,377.935,27.0851,89.3728,61.8684,-0.149532,246.291,-172.537
1.72,376.712,26.9231,90.6062,61.6721,-9.8139,-483.219,-172.379
1.74,375.491,26.758,91.8381,61.597,-3.75531,302.93,-172.23
1.76,374.273,26.5902,93.0683,61.5089,-4.40846,-32.6571,-172.091
1.78,373.057,26.4199,94.2955,61.3601,-7.44064,-151.609,-171.963
1.8,371.843,26.2472,95.5221,61.3307,-1.46568,298.748,-171.844
1.82,370.633,26.0725,96.7443,61.108,-11.1391,-483.669,-171.738
1.84,369.425,25.8962,97.9654,61.0533,-2.73515,420.196,-171.643
1.86,368.22,25.7182,99.1831,60.889,-8.21339,-273.912,-171.56
1.88,367.018,25.539,100.399,60.7707,-5.91597,114.871,-171.489
1.9,365.82,25.3589,101.611,60.6015,-8.45793,-127.098,-171.43
1.92,364.624,25.1783,102.82,60.4759,-6.27902,108.946,-171.388
1.94,363.432,24.9972,104.026,60.2924,-9.17763,-144.931,-171.359
1.96,362.241,24.8162,105.23,60.1939,-4.92232,212.765,-171.344
1.98,361.055,24.6355,106.43,59.9843,-10.4793,-277.851,-171.344
2,359.873,24.4555,107.626,59.8212,-8.15833,116.051,-171.359
2.02,358.693,24.2766,108.819,59.6513,-8.49351,-16.7591,-171.394
2.04,357.518,24.0993,110.007,59.4011,-12.5082,-200.733,-171.447
2.06,356.346,23.9236,111.192,59.2477,-7.67379,241.719,-171.518
2.08,355.179,23.7504,112.372,59.0081,-11.98,-215.308,-171.61
2.1,354.016,23.58,113.547,58.7556,-12.6211,-32.0567,-171.724
2.12,352.862,23.4136,114.713,58.3007,-22.7463,-506.262,-171.883
2.14,351.733,23.2549,115.854,57.0303,-63.5201,-2038.69,-172.157
2.16,350.609,23.1031,116.988,56.6991,-16.5614,2347.93,-172.467
2.18,349.488,22.9581,118.118,56.5043,-9.73984,341.079,-172.791
2.2,348.369,22.8197,119.246,56.4035,-5.04197,234.893,-173.125
2.22,347.253,22.6886,120.369,56.1664,-11.8543,-340.616,-173.477
2.24,346.137,22.5644,121.492,56.1272,-1.95627,494.901,-173.838
2.26,345.024,22.4479,122.611,55.9561,-8.55952,-330.163,-174.211
2.28,343.912,22.3389,123.729,55.8977,-2.9191,282.021,-174.595
2.3,342.801,22.2375,124.844,55.7734,-6.21357,-164.724,-174.987
2.32,341.692,22.1442,125.958,55.6574,-5.8018,20.5887,-175.391
2.34,340.584,22.0588,127.069,55.5587,-4.93486,43.3469,-175.801
2.36,339.476,21.9815,128.179,55.5122,-2.32195,130.646,-176.217
2.38,338.369,21.9123,129.289,55.4901,-1.10408,60.8936,-176.637
2.4,337.262,21.8513,130.397,55.4319,-2.90994,-90.293,-177.06
2.42,336.153,21.7985,131.507,55.47,1.90072,240.533,-177.482
2.44,335.045,21.7539,132.616,55.4829,0.648005,-62.6358,-177.901
2.46,333.935,21.7173,133.727,55.5208,1.89331,62.2653,-178.315
2.48,332.822,21.6885,134.84,55.6444,6.18005,214.337,-178.721
2.5,331.708,21.6675,135.955,55.7467,5.11663,-53.1708,-179.112
2.52,330.588,21.6539,137.074,55.9845,11.8872,338.528,-179.485
2.54,329.464,21.6474,138.198,56.1966,10.6064,-64.04,-179.838
2.56,328.335,21.6476,139.328,56.4758,13.9601,167.688,179.835
2.58,327.198,21.6539,140.464,56.8324,17.8292,193.455,179.541
2.6,326.054,21.6658,141.609,57.2227,19.5152,84.2952,179.283
2.62,324.899,21.6826,142.763,57.7108,24.4045,244.468,179.07
2.64,323.736,21.7035,143.927,58.1882,23.8729,-26.5791,178.901
2.66,322.561,21.7274,145.102,58.7623,28.7032,241.513,178.785
2.68,321.375,21.7535,146.289,59.3286,28.3135,-19.4843,178.726
2.7,320.174,21.7804,147.489,60.0259,34.8666,327.652,178.727
2.72,318.96,21.807,148.704,60.758,36.6055,86.9476,178.796
2.74,317.732,21.8318,149.932,61.374,30.8022,-290.165,178.927
2.76,316.49,21.8532,151.174,62.0998,36.2876,274.272,179.121
2.78,315.235,21.8699,152.43,62.7966,34.8418,-72.2906,179.38
2.8,313.964,21.8802,153.7,63.5154,35.9392,54.867,179.706
2.82,312.679,21.8827,154.985,64.2464,36.5487,30.476,-179.9
2.84,311.383,21.8756,156.282,64.8291,29.1375,-370.56,-179.452
2.86,310.076,21.8577,157.589,65.3727,27.1801,-97.8687,-178.954
2.88,308.759,21.8276,158.906,65.8569,24.2089,-148.562,-178.412
2.9,307.435,21.7844,160.231,66.2437,19.3368,-243.604,-177.831
2.92,306.103,21.7268,161.564,66.6663,21.1322,89.7685,-177.213
2.94,304.766,21.6543,162.903,66.9179,12.579,-427.658,-176.57
2.96,303.426,21.5664,164.245,67.1311,10.6602,-95.9414,-175.911
2.98,302.086,21.4627,165.589,67.1995,3.41973,-362.022,-175.241
3,300.746,21.3432,166.935,67.2619,3.12201,-14.8863,-174.566
3.02,299.408,21.2079,168.28,67.268,0.305805,-140.81,-173.892
3.04,298.072,21.0572,169.624,67.1957,-3.61845,-196.213,-173.227
3.06,296.742,20.8913,170.964,67.0202,-8.7755,-257.852,-172.572
3.08,295.416,20.7108,172.302,66.9068,-5.66752,155.399,-171.931
3.1,294.096,20.5162,173.637,66.7164,-9.52097,-192.673,-171.307
3.12,292.783,20.3085,174.966,66.4717,-12.236,-135.753,-170.71
3.14,291.478,20.088,176.29,66.1954,-13.8112,-78.7565,-170.134
3.16,290.18,19.8556,177.609,65.9489,-12.3282,74.1497,-169.581
3.18,288.89,19.6121,178.922,65.6384,-15.5256,-159.871,-169.057
3.2,287.606,19.3581,180.23,65.4307,-10.3861,256.974,-168.557
3.22,286.331,19.0945,181.532,65.0805,-17.5058,-355.982,-168.085
3.24,285.065,18.8221,182.827,64.7344,-17.3049,10.0453,-167.645
3.26,283.807,18.5414,184.116,64.4722,-13.1136,209.562,-167.229
3.28,282.571,18.2568,185.384,63.4006,-53.5792,-2023.28,-166.845
3.3,281.397,17.9785,186.591,60.3423,-152.912,-4966.63,-166.505
3.32,280.301,17.7125,187.719,56.3834,-197.95,-2251.91,-166.205
3.34,279.288,17.4612,188.762,52.1734,-210.497,-627.36,-165.948
3.36,278.357,17.2261,189.723,48.0495,-206.197,215.012,-165.729
3.38,277.504,17.0077,190.603,44.01,-201.975,211.114,-165.539
3.4,276.728,16.8063,191.405,40.0651,-197.243,236.576,-165.378
3.42,276.019,16.6202,192.138,36.6497,-170.771,1323.61,-165.239
3.44,275.386,16.4527,192.792,32.7376,-195.607,-1241.81,-165.124
3.46,274.848,16.3092,193.35,27.859,-243.928,-2416.06,-165.031
3.48,274.346,16.1746,193.869,25.9816,-93.8691,7502.96,-164.945
3.5,273.98,16.0761,194.248,18.9345,-352.356,-12924.3,-164.889
3.52,273.668,15.9914,194.572,16.1815,-137.648,10735.4,-164.844
3.54,273.355,15.9065,194.896,16.2437,3.10878,7037.82,-164.798
3.56,273.104,15.8383,195.156,12.9604,-164.165,-8363.68,-164.764
3.58,272.906,15.7842,195.361,10.2826,-133.892,1513.64,-164.738
3.6,272.708,15.73,195.567,10.2729,-0.486216,6670.28,-164.713
3.62,272.509,15.6758,195.772,10.2848,0.598196,54.2206,-164.687
3.64,272.311,15.6215,195.978,10.2752,-0.479451,-53.8823,-164.662
3.66,272.113,15.5671,196.183,10.2654,-0.49259,-0.656969,-164.638
3.68,271.915,15.5128,196.388,10.2557,-0.485909,0.334061,-164.615
3.7,271.719,15.4583,196.593,10.2084,-2.36357,-93.8828,-164.592
3.72,271.521,15.4038,196.798,10.2576,2.46307,241.332,-164.569
3.74,271.323,15.3493,197.003,10.2586,0.0465241,-120.827,-164.546
3.76,271.126,15.2948,197.207,10.2167,-2.09558,-107.105,-164.527
3.78,270.93,15.2404,197.411,10.1958,-1.04442,52.5579,-164.51
3.8,270.734,15.186,197.614,10.1483,-2.37552,-66.555,-164.493
3.82,270.538,15.1315,197.818,10.1974,2.45561,241.556,-164.476
3.84,270.341,15.077,198.022,10.1873,-0.505453,-148.053,-164.46
3.86,270.146,15.0225,198.225,10.1399,-2.36815,-93.1348,-164.444
3.88,269.95,14.968,198.428,10.1672,1.36403,186.609,-164.43
3.9,269.754,14.9134,198.631,10.168,0.0402154,-66.1907,-164.416
3.92,269.559,14.8588,198.834,10.1204,-2.38097,-121.059,-164.402
3.94,269.363,14.8042,199.037,10.1692,2.44137,241.117,-164.388
3.96,269.168,14.7496,199.24,10.1482,-1.05087,-174.612,-164.376
3.98,268.974,14.6951,199.442,10.0895,-2.93287,-94.1002,-164.365
4,268.778,14.6406,199.644,10.1276,1.9022,241.754,-164.355
4.02,268.584,14.586,199.846,10.0797,-2.39376,-214.798,-164.345
4.04,268.389,14.5314,200.049,10.1393,2.97976,268.676,-164.334
4.06,268.248,14.4916,200.195,7.33645,-140.142,-7156.08,-164.328
4.08,268.15,14.4645,200.297,5.0562,-114.012,1306.46,-164.326
4.1,268.054,14.4373,200.397,5.00833,-2.39386,5580.93,-164.324
4.12,267.957,14.4101,200.497,5.01897,0.532094,146.297,-164.321
4.14,267.861,14.383,200.597,5.00833,-0.532094,-53.2094,-164.319
4.16,267.763,14.3558,200.699,5.06725,2.94615,173.912,-164.316
4.18,267.667,14.3286,200.799,5.00846,-2.93937,-294.276,-164.314
4.2,267.57,14.3014,200.899,5.01924,0.53887,173.912,-164.311
4.22,267.474,14.2742,200.999,5.0086,-0.532089,-53.548,-164.309
4.24,267.376,14.247,201.101,5.06738,2.9393,173.569,-164.306
