"time","x","y","position","velocity","acceleration","jerk","heading"
0,408.8,119.4,0,0,57,0,0
0.02,408.839,119.301,0.106405,1.14,57,0,-68.4008
0.04,408.879,119.201,0.214108,2.28,57,0,-68.4017
0.06,408.918,119.102,0.320513,3.42,57,0,-68.4025
0.08,408.957,119.003,0.426918,4.56,57,0,-68.4034
0.1,408.997,118.904,0.533693,5.7,57,0,-68.4042
0.12,409.036,118.804,0.641029,6.84,57,0,-68.4051
0.14,409.075,118.705,0.747434,7.98,57,0,-68.4059
0.16,409.114,118.606,0.853839,9.12,57,0,-68.4068
0.18,409.154,118.507,0.960615,10.26,57,0,-68.4076
0.2,409.228,118.318,1.16359,11.4,57,0,-68.4115
0.22,409.323,118.079,1.42077,12.54,57,0,-68.417
0.24,409.418,117.839,1.67889,13.68,57,0,-68.4226
0.26,409.513,117.599,1.93701,14.82,57,0,-68.4281
0.28,409.629,117.305,2.25307,15.96,57,0,-68.4381
0.3,409.753,116.992,2.58973,17.1,57,0,-68.4495
0.32,409.876,116.68,2.9251,18.24,57,0,-68.461
0.34,410.017,116.322,3.30987,19.38,57,0,-68.4776
0.36,410.163,115.951,3.70856,20.52,57,0,-68.4957
0.38,410.315,115.567,4.12155,21.66,57,0,-68.5157
0.4,410.48,115.146,4.57373,22.8,57,0,-68.541
0.42,410.647,114.723,5.02851,23.94,57,0,-68.5666
0.44,410.829,114.257,5.52879,25.08,57,0,-68.5992
0.46,411.013,113.789,6.03166,26.22,57,0,-68.6322
0.48,411.211,113.282,6.57595,27.36,57,0,-68.6721
0.5,411.412,112.767,7.12888,28.5,57,0,-68.7136
0.52,411.624,112.222,7.71338,29.64,57,0,-68.7607
0.54,411.842,111.659,8.31702,30.78,57,0,-68.8114
0.56,412.067,111.079,8.93941,31.92,57,0,-68.8654
0.58,412.302,110.468,9.59367,33.06,57,0,-68.9254
0.6,412.543,109.842,10.2646,34.2,57,0,-68.9885
0.62,412.791,109.196,10.9564,35.34,57,0,-69.0553
0.64,413.049,108.522,11.6785,36.48,57,0,-69.1275
0.66,413.312,107.829,12.4194,37.62,57,0,-69.2028
0.68,413.582,107.117,13.1811,38.76,57,0,-69.2814
0.7,413.859,106.383,13.9655,39.9,57,0,-69.3634
0.72,414.145,105.623,14.7775,41.04,57,0,-69.4487
0.74,414.437,104.843,15.6106,42.18,57,0,-69.5363
0.76,414.735,104.042,16.4654,43.32,57,0,-69.6259
0.78,415.04,103.219,17.3428,44.46,57,0,-69.717
0.8,415.351,102.375,18.2425,45.6,57,0,-69.8091
0.82,415.669,101.509,19.1653,46.74,57,0,-69.9016
0.84,415.993,100.62,20.1109,47.88,57,0,-69.9937
0.86,416.323,99.7098,21.0793,49.02,57,0,-70.0848
0.88,416.661,98.7772,22.0713,50.16,57,0,-70.1739
0.9,417.004,97.8224,23.0859,51.3,57,0,-70.2597
0.92,417.354,96.8454,24.1237,52.44,57,0,-70.3412
0.94,417.71,95.8464,25.1842,53.58,57,0,-70.4175
0.96,418.072,94.8255,26.2674,54.72,57,0,-70.4876
0.98,418.441,93.7827,27.3735,55.86,46.3545,0,-70.5501
1,418.816,92.7203,28.5002,56.7489,14.25,0,-70.6038
1.02,419.193,91.6469,29.6379,57,0,0,-70.6471
1.04,419.57,90.5712,30.7777,57,0,0,-70.6786
1.06,419.947,89.4954,31.9176,57,0,0,-70.6976
1.08,420.324,88.4194,33.0578,57,0,0,-70.7024
1.1,420.701,87.3435,34.1978,57,0,0,-70.6912
1.12,421.078,86.2677,35.3378,57,0,0,-70.6642
1.14,421.456,85.1921,36.4779,57,0,0,-70.6211
1.16,421.835,84.1169,37.6179,57,0,0,-70.561
1.18,422.215,83.0421,38.7579,57,0,0,-70.4831
1.2,422.596,81.9679,39.8977,57,0,0,-70.3863
1.22,422.98,80.8944,41.0378,57,0,0,-70.2692
1.24,423.366,79.8217,42.1778,57,0,0,-70.1294
1.26,423.755,78.7501,43.3178,57,0,0,-69.9676
1.28,424.147,77.6797,44.4577,57,0,0,-69.7825
1.3,424.543,76.6106,45.5978,57,0,0,-69.5728
1.32,424.943,75.5431,46.7378,57,0,0,-69.3373
1.34,425.348,74.4773,47.878,57,0,0,-69.0745
1.36,425.757,73.4135,49.0177,57,0,0,-68.7814
1.38,426.173,72.3519,50.1579,57,0,0,-68.4547
1.4,426.595,71.2929,51.2979,57,0,0,-68.0956
1.42,427.023,70.2366,52.4376,57,0,0,-67.7021
1.44,427.46,69.1834,53.5778,57,0,0,-67.2723
1.46,427.904,68.1336,54.7177,57,0,0,-66.8038
1.48,428.358,67.0877,55.8579,57,0,0,-66.2945
1.5,428.821,66.0461,56.9977,57,0,0,-65.7269
1.52,429.295,65.0092,58.1378,57,0,0,-65.1331
1.54,429.78,63.9775,59.2778,57,0,0,-64.4713
1.56,430.277,62.9516,60.4178,57,0,0,-63.7683
1.58,430.787,61.9323,61.5576,57,0,0,-63.0065
1.6,431.312,60.92,62.6979,57,0,0,-62.177
1.62,431.851,59.9157,63.8377,57,0,0,-61.2972
1.64,432.407,58.9203,64.9779,57,0,0,-60.3286
1.66,432.979,57.9346,66.1175,57,0,0,-59.3038
1.68,433.57,56.9598,67.2575,57,0,0,-58.185
1.7,434.181,55.997,68.3978,57,0,0,-56.9945
1.72,434.812,55.0476,69.5377,57,0,0,-55.7131
1.74,435.465,54.1131,70.6778,57,0,0,-54.355
1.76,436.14,53.1949,71.8174,57,0,0,-52.8806
1.78,436.84,52.2949,72.9576,57,0,0,-51.3315
1.8,437.565,51.415,74.0977,57,0,0,-49.6564
1.82,438.315,50.5572,75.2371,57,0,0,-47.888
1.84,439.093,49.7236,76.3774,57,0,0,-46.0218
1.86,439.898,48.9166,77.5172,57,0,0,-44.0453
1.88,440.731,48.1385,78.6571,57,0,0,-41.9815
1.9,441.592,47.3917,79.7969,57,0,0,-39.8198
1.92,442.482,46.6785,80.9374,57,0,0,-37.5952
1.94,443.399,46.0013,82.0773,57,0,0,-35.2704
1.96,444.343,45.3622,83.2173,57,0,0,-32.9026
1.98,445.312,44.7631,84.3566,57,0,0,-30.4935
2,446.307,44.2056,85.4971,57,0,0,-28.0593
2.02,447.324,43.6909,86.6369,57,0,0,-25.6216
2.04,448.362,43.2199,87.7768,57,0,0,-23.2004
2.06,449.419,42.7931,88.9167,57,0,0,-20.8024
2.08,450.493,42.4103,90.0569,57,0,0,-18.4653
2.1,451.581,42.0713,91.1965,57,0,0,-16.1908
2.12,452.682,41.775,92.3366,57,0,0,-13.9872
2.14,453.793,41.5205,93.4764,57,0,0,-11.8824
2.16,454.912,41.3061,94.6158,57,0,0,-9.86187
2.18,456.039,41.1305,95.7564,57,21.597,0,-7.94761
2.2,457.166,40.9919,96.8919,56.5511,53.9743,0,-6.12006
2.22,458.282,40.8893,98.0126,55.4644,57,0,-4.45165
2.24,459.377,40.8198,99.1098,54.3244,57,0,-2.88179
2.26,460.451,40.7794,100.185,53.1844,57,0,-1.47262
2.28,461.503,40.7653,101.237,52.0444,57,0,-0.15186
2.3,462.532,40.7739,102.266,50.9044,57,0,1.04859
2.32,463.538,40.8027,103.272,49.7644,57,0,2.1578
2.34,464.521,40.849,104.256,48.6244,57,0,3.17301
2.36,465.48,40.9106,105.217,47.4844,57,0,4.10188
2.38,466.416,40.9852,106.156,46.3444,57,0,4.95907
2.4,467.328,41.0711,107.072,45.2044,57,0,5.73394
2.42,468.216,41.1662,107.965,44.0644,57,0,6.45618
2.44,469.078,41.269,108.833,42.9244,57,0,7.11018
2.46,469.917,41.3783,109.679,41.7844,57,0,7.70252
2.48,470.732,41.4927,110.502,40.6444,57,0,8.24309
2.5,471.525,41.6113,111.304,39.5044,57,0,8.7381
2.52,472.297,41.7332,112.086,38.3644,57,0,9.19202
2.54,473.042,41.8565,112.841,37.2244,57,0,9.59857
2.56,473.761,41.9808,113.571,36.0844,57,0,9.96544
2.58,474.461,42.106,114.282,34.9444,57,0,10.3026
2.6,475.141,42.2317,114.973,33.8044,57,0,10.6121
2.62,475.789,42.3547,115.633,32.6644,57,0,10.8794
2.64,476.419,42.4774,116.275,31.5244,57,0,11.127
2.66,477.029,42.5988,116.897,30.3844,57,0,11.3519
2.68,477.608,42.7161,117.487,29.2444,57,0,11.545
2.7,478.176,42.8331,118.067,28.1044,57,0,11.7274
2.72,478.708,42.9445,118.611,26.9644,57,0,11.8791
2.74,479.228,43.0546,119.142,25.8244,57,0,12.0215
2.76,479.717,43.1594,119.642,24.6844,57,0,12.1407
2.78,480.193,43.2622,120.129,23.5444,57,0,12.2513
2.8,480.635,43.3586,120.582,22.4044,57,0,12.3409
2.82,481.072,43.4547,121.029,21.2644,57,0,12.4284
2.84,481.461,43.5407,121.428,20.1244,57,0,12.4913
2.86,481.85,43.6271,121.826,18.9844,57,0,12.5542
2.88,482.204,43.7062,122.189,17.8444,57,0,12.6034
2.9,482.532,43.7796,122.525,16.7044,57,0,12.642
2.92,482.86,43.8533,122.861,15.5644,57,0,12.6807
2.94,483.143,43.917,123.151,14.4244,57,0,12.7075
2.96,483.394,43.9737,123.409,13.2844,57,0,12.7261
2.98,483.645,44.0306,123.666,12.1444,57,0,12.7447
3,483.897,44.0875,123.924,11.0044,57,0,12.7633
3.02,484.043,44.1207,124.074,9.86442,57,0,12.7709
3.04,484.147,44.1443,124.181,8.72442,57,0,12.7742
3.06,484.251,44.168,124.287,7.58442,57,0,12.7774
3.08,484.356,44.1916,124.395,6.44442,57,0,12.7806
3.1,484.46,44.2152,124.502,5.30442,57,0,12.7838
3.12,484.564,44.2389,124.608,4.16442,57,0,12.787
3.14,484.668,44.2625,124.715,3.02442,57,0,12.7902
3.16,484.772,44.2862,124.822,1.88442,57,0,12.7935
3.18,484.876,44.3098,124.928,0.744423,57,0,12.7967
