"time","x","y","position","velocity","acceleration","jerk","heading"
0,473.696,19.7788,0,0,0,0,-160.346
0.02,473.517,19.7148,0.190279,9.51396,475.698,23784.9,-160.347
0.04,473.338,19.6509,0.379799,9.47598,-1.89927,-23879.9,-160.349
0.06,473.159,19.587,0.570044,9.51228,1.81528,185.727,-160.35
0.08,472.98,19.5231,0.76029,9.51228,5.31717e-09,-90.7638,-160.351
0.1,472.8,19.4592,0.950751,9.52306,0.53887,26.9435,-160.353
0.12,472.436,19.3292,1.33749,19.3367,490.684,24507.3,-160.359
0.14,472.003,19.1746,1.79708,22.9796,182.145,-15426.9,-160.368
0.16,471.498,18.9943,2.33392,26.8419,193.111,548.271,-160.381
0.18,470.932,18.7926,2.93446,30.027,159.259,-1692.58,-160.399
0.2,470.272,18.5579,3.63462,35.0084,249.066,4490.34,-160.427
0.22,469.556,18.3037,4.39452,37.9948,149.324,-4987.11,-160.462
0.24,468.773,18.0258,5.22552,41.5501,177.762,1421.91,-160.507
0.26,467.916,17.723,6.13423,45.4354,194.269,825.368,-160.565
0.28,466.986,17.3954,7.12086,49.3317,194.812,27.12,-160.637
0.3,465.981,17.0432,8.18511,53.2123,194.031,-39.0041,-160.727
0.32,464.904,16.6675,9.32594,57.0417,191.472,-127.957,-160.836
0.34,463.763,16.2724,10.5337,60.3865,167.237,-1211.74,-160.965
0.36,462.598,15.8722,11.7653,61.5803,59.6889,-5377.42,-161.111
0.38,461.429,15.474,13.0001,61.7407,8.02056,-2583.42,-161.272
0.4,460.256,15.0784,14.238,61.8935,7.64165,-18.9453,-161.448
0.42,459.078,14.6852,15.4797,62.0884,9.7455,105.192,-161.643
0.44,457.896,14.2951,16.7252,62.2712,9.14077,-30.2366,-161.852
0.46,456.708,13.9085,17.9739,62.435,8.18879,-47.5988,-162.078
0.48,455.517,13.5256,19.2253,62.5735,6.9218,-63.3497,-162.319
0.5,454.319,13.1466,20.4819,62.8284,12.7456,291.188,-162.582
0.52,453.117,12.7725,21.7409,62.9522,6.19278,-327.639,-162.855
0.54,451.908,12.4031,23.0047,63.1901,11.8945,285.085,-163.149
0.56,450.695,12.0389,24.2714,63.3342,7.20478,-234.485,-163.46
0.58,449.477,11.6807,25.5412,63.4898,7.77988,28.755,-163.785
0.6,448.251,11.3282,26.8162,63.7495,12.9856,260.286,-164.134
0.62,447.02,10.9826,28.0949,63.9355,9.29898,-184.331,-164.496
0.64,445.783,10.6437,29.3775,64.1313,9.79196,24.6487,-164.881
0.66,444.54,10.3124,30.664,64.324,9.63239,-7.97848,-165.28
0.68,443.292,9.98906,31.9535,64.4716,7.38285,-112.477,-165.698
0.7,442.037,9.6742,33.2471,64.6819,10.5148,156.597,-166.132
0.72,440.776,9.36802,34.5448,64.8867,10.239,-13.7905,-166.586
0.74,439.509,9.07132,35.8463,65.0745,9.38862,-42.518,-167.054
0.76,438.237,8.78437,37.1501,65.187,5.62533,-188.165,-167.538
0.78,436.959,8.50771,38.4574,65.3656,8.93162,165.314,-168.035
0.8,435.677,8.24189,39.7669,65.4742,5.42855,-175.153,-168.543
0.82,434.39,7.98706,41.0786,65.5865,5.61359,9.2517,-169.062
0.84,433.1,7.74372,42.392,65.6684,4.09597,-75.8809,-169.589
0.86,431.805,7.51216,43.7072,65.7606,4.60874,25.6385,-170.12
0.88,430.509,7.29257,45.0219,65.737,-1.1767,-289.272,-170.653
0.9,429.211,7.08511,46.3364,65.7248,-0.610834,28.2932,-171.184
0.92,427.913,6.88991,47.6487,65.6145,-5.51708,-245.313,-171.708
0.94,426.614,6.70666,48.9607,65.5995,-0.746783,238.515,-172.224
0.96,425.318,6.53552,50.268,65.3655,-11.7019,-547.756,-172.725
0.98,424.024,6.37597,51.5721,65.2061,-7.96864,186.663,-173.208
1,422.732,6.2275,52.8724,65.0146,-9.57557,-80.3467,-173.674
1.02,421.446,6.08998,54.1655,64.6532,-18.071,-424.773,-174.102
1.04,420.165,5.96241,55.4527,64.3601,-14.6538,170.863,-174.507
1.06,418.891,5.84423,56.7326,63.9939,-18.3099,-182.808,-174.877
1.08,417.625,5.73467,58.0034,63.5406,-22.6673,-217.867,-175.208
1.1,416.364,5.63249,59.2686,63.2615,-13.9536,435.683,-175.511
1.12,415.114,5.53726,60.5219,62.6639,-29.8788,-796.258,-175.756
1.14,413.871,5.44755,61.7679,62.3013,-18.1316,587.357,-175.969
1.16,412.638,5.36273,63.0044,61.8235,-23.8919,-288.015,-176.139
1.18,411.413,5.28172,64.2314,61.3496,-23.693,9.94324,-176.266
1.2,410.194,5.20337,65.4527,61.069,-14.0293,483.184,-176.363
1.22,408.989,5.12723,66.6607,60.4003,-33.4331,-970.188,-176.403
1.24,407.788,5.05215,67.8639,60.1571,-12.1642,1063.45,-176.416
1.26,406.595,4.97745,69.0595,59.7802,-18.8449,-334.034,-176.394
1.28,405.409,4.90239,70.2472,59.3879,-19.6132,-38.4189,-176.34
1.3,404.228,4.82619,71.4307,59.1731,-10.7376,443.78,-176.261
1.32,403.055,4.74849,72.6062,58.7741,-19.9512,-460.677,-176.149
1.34,401.886,4.66858,73.7782,58.5993,-8.74116,560.5,-176.02
1.36,400.722,4.5861,74.9454,58.3618,-11.8733,-156.609,-175.868
1.38,399.56,4.50062,76.1101,58.2336,-6.41102,273.116,-175.703
1.4,398.402,4.4119,77.2716,58.0747,-7.94788,-76.8426,-175.522
1.42,397.247,4.31958,78.4302,57.9323,-7.12027,41.3804,-175.331
1.44,396.095,4.2234,79.5868,57.8308,-5.07268,102.379,-175.129
1.46,394.944,4.12325,80.742,57.7557,-3.7547,65.8993,-174.923
1.48,393.794,4.01906,81.8964,57.7208,-1.74319,100.575,-174.712
1.5,392.645,3.91058,83.0508,57.72,-0.0414234,85.0882,-174.499
1.52,391.497,3.79779,84.2044,57.681,-1.94878,-95.3679,-174.285
1.54,390.348,3.68074,85.3587,57.7137,1.63432,179.155,-174.072
1.56,389.201,3.5593,86.5131,57.7196,0.292095,-67.1111,-173.862
1.58,388.052,3.43365,87.6686,57.7749,2.76652,123.721,-173.655
1.6,386.902,3.30376,88.8254,57.8418,3.34345,28.8466,-173.452
1.62,385.753,3.16978,89.983,57.8801,1.91813,-71.2661,-173.255
1.64,384.602,3.03166,91.1416,57.93,2.49354,28.7706,-173.065
1.66,383.45,2.88968,92.3022,58.0284,4.91942,121.294,-172.882
1.68,382.298,2.74384,93.4637,58.0778,2.46882,-122.53,-172.706
1.7,381.143,2.59432,94.6282,58.2257,7.39464,246.291,-172.537
1.72,379.988,2.44129,95.7936,58.2665,2.04123,-267.671,-172.379
1.74,378.831,2.28479,96.9613,58.3854,5.94435,195.156,-172.23
1.76,377.671,2.12517,98.1315,58.5127,6.36894,21.2299,-172.091
1.78,376.511,1.9625,99.3035,58.601,4.4145,-97.722,-171.963
1.8,375.347,1.79701,100.479,58.7657,8.23398,190.974,-171.844
1.82,374.183,1.62888,101.655,58.8231,2.87157,-268.12,-171.738
1.84,373.015,1.45844,102.835,59.0055,9.12,312.421,-171.643
1.86,371.846,1.28565,104.017,59.0999,4.7195,-220.025,-171.56
1.88,370.674,1.111,105.202,59.2403,7.01691,114.871,-171.489
1.9,369.5,0.934693,106.389,59.3298,4.47495,-127.098,-171.43
1.92,368.322,0.756746,107.58,59.5706,12.0426,378.381,-171.388
1.94,367.142,0.577583,108.774,59.6673,4.833,-360.479,-171.359
1.96,365.959,0.39757,109.971,59.8706,10.166,266.652,-171.344
1.98,364.773,0.21687,111.171,59.9843,5.68676,-223.964,-171.344
2,363.583,0.0358833,112.374,60.1445,8.00779,116.051,-171.359
2.02,362.389,-0.145248,113.582,60.4057,13.0613,252.676,-171.394
2.04,361.192,-0.326052,114.793,60.5435,6.89116,-308.508,-171.447
2.06,359.99,-0.506219,116.008,60.7781,11.7255,241.719,-171.518
2.08,358.783,-0.685228,117.228,60.9911,10.6526,-53.6473,-171.61
2.1,357.572,-0.862789,118.452,61.2129,11.0892,21.8301,-171.724
2.12,356.35,-1.03898,119.687,61.7279,25.752,733.139,-171.883
2.14,355.103,-1.21407,120.945,62.9363,60.4199,1733.39,-172.157
2.16,353.847,-1.38371,122.213,63.3811,22.2371,-1909.14,-172.467
2.18,352.588,-1.54667,123.483,63.488,5.34848,-844.433,-172.791
2.2,351.325,-1.7027,124.755,63.6027,5.73539,19.3458,-173.125
2.22,350.059,-1.85155,126.03,63.7536,7.54496,90.4784,-173.477
2.24,348.789,-1.99285,127.308,63.9085,7.74335,9.91965,-173.838
2.26,347.516,-2.12612,128.588,63.996,4.37331,-168.502,-174.211
2.28,346.238,-2.25129,129.872,64.1747,8.93599,228.134,-174.595
2.3,344.959,-2.36798,131.156,64.2229,2.40831,-326.384,-174.987
2.32,343.676,-2.47594,132.443,64.3655,7.13102,236.135,-175.391
2.34,342.392,-2.57492,133.731,64.3961,1.53154,-279.974,-175.801
2.36,341.106,-2.66471,135.021,64.479,4.14446,130.646,-176.217
2.38,339.817,-2.74515,136.312,64.5431,3.20686,-46.8799,-176.637
2.4,338.528,-2.81614,137.603,64.5496,0.323264,-144.18,-177.06
2.42,337.239,-2.87761,138.894,64.5661,0.822988,24.9862,-177.482
2.44,335.949,-2.92955,140.184,64.5144,-2.5852,-170.409,-177.901
2.46,334.661,-2.97206,141.473,64.4445,-3.49536,-45.5081,-178.315
2.48,333.374,-3.00531,142.761,64.3956,-2.44182,52.6767,-178.721
2.5,332.09,-3.02954,144.045,64.1746,-11.0494,-430.378,-179.112
2.52,330.81,-3.0451,145.325,64.0244,-7.51204,176.867,-179.485
2.54,329.534,-3.05251,146.601,63.8054,-10.9483,-171.814,-179.838
2.56,328.263,-3.05234,147.872,63.5242,-14.061,-155.634,179.835
2.58,327,-3.0453,149.135,63.1695,-17.7361,-183.753,179.541
2.6,325.744,-3.03224,150.391,62.7838,-19.2834,-77.3668,179.283
2.62,324.499,-3.01411,151.637,62.3019,-24.0937,-240.515,179.07
2.64,323.262,-2.99199,152.873,61.831,-23.5476,27.3062,178.901
2.66,322.037,-2.96701,154.099,61.2627,-28.417,-243.472,178.785
2.68,320.825,-2.94043,155.311,60.6003,-33.1177,-235.034,178.726
2.7,319.626,-2.91349,156.511,60.0043,-29.7979,165.99,178.727
2.72,318.44,-2.88755,157.696,59.2707,-36.6809,-344.149,178.796
2.74,317.27,-2.86391,158.867,58.5504,-36.0177,33.1581,178.927
2.76,316.112,-2.84386,160.026,57.9182,-31.61,220.387,179.121
2.78,314.967,-2.82865,161.17,57.2139,-35.2112,-180.061,179.38
2.8,313.838,-2.81943,162.3,56.4886,-36.2692,-52.9021,179.706
2.82,312.723,-2.81731,163.415,55.7538,-36.7373,-23.4045,-179.9
2.84,311.619,-2.82327,164.518,55.1726,-29.0601,383.86,-179.452
2.86,310.526,-2.83819,165.611,54.6385,-26.7065,117.682,-178.954
2.88,309.443,-2.86287,166.694,54.1743,-23.2112,174.761,-178.412
2.9,308.369,-2.89795,167.769,53.7204,-22.6946,25.8318,-177.831
2.92,307.303,-2.94398,168.836,53.3455,-18.7437,197.545,-177.213
2.94,306.244,-3.00145,169.897,53.0582,-14.3641,218.98,-176.57
2.96,305.188,-3.07074,170.955,52.9265,-6.58339,389.036,-175.911
2.98,304.136,-3.15212,172.011,52.7578,-8.43522,-92.5912,-175.241
3,303.086,-3.24579,173.065,52.7125,-2.2666,308.431,-174.566
3.02,302.036,-3.35185,174.12,52.7402,1.38353,182.507,-173.892
3.04,300.986,-3.47042,175.177,52.8618,6.08105,234.876,-173.227
3.06,299.936,-3.60139,176.235,52.9018,2.00174,-203.966,-172.572
3.08,298.884,-3.74465,177.297,53.0902,9.42061,370.943,-171.931
3.1,297.83,-3.90002,178.362,53.2663,8.80034,-31.0131,-171.307
3.12,296.771,-4.06755,179.434,53.6035,16.8626,403.111,-170.71
3.14,295.71,-4.24669,180.51,53.7799,8.82111,-402.072,-170.134
3.16,294.646,-4.43715,181.59,54.0291,12.4596,181.923,-169.581
3.18,293.578,-4.63876,182.677,54.3437,15.7285,163.449,-169.057
3.2,292.506,-4.85093,183.77,54.6533,15.4794,-12.4574,-168.557
3.22,291.431,-5.07338,184.868,54.9067,12.6707,-140.434,-168.085
3.24,290.351,-5.30584,185.973,55.2503,17.1826,225.593,-167.645
3.26,289.267,-5.54753,187.083,55.5054,12.752,-221.529,-167.229
3.28,288.193,-5.79499,188.186,55.1235,-19.0917,-1592.18,-166.845
3.3,287.161,-6.03954,189.246,53.0137,-105.491,-4319.98,-166.505
3.32,286.191,-6.27506,190.245,49.9169,-154.84,-2467.46,-166.205
3.34,285.286,-6.49965,191.177,46.6338,-164.154,-465.697,-165.948
3.36,284.445,-6.71172,192.044,43.329,-165.243,-54.4216,-165.729
3.38,283.672,-6.9098,192.842,39.9146,-170.72,-273.867,-165.539
3.4,282.964,-7.09372,193.574,36.5948,-165.989,236.577,-165.378
3.42,282.313,-7.2646,194.247,33.6536,-147.061,946.401,-165.239
3.44,281.728,-7.41942,194.852,30.2588,-169.741,-1134.03,-165.124
3.46,281.228,-7.55265,195.369,25.8544,-220.218,-2523.84,-165.031
3.48,280.762,-7.67762,195.852,24.1279,-86.3249,6694.65,-164.945
3.5,280.42,-7.76984,196.206,17.7274,-320.024,-11684.9,-164.889
3.52,280.126,-7.84943,196.511,15.2116,-125.792,9711.57,-164.844
3.54,279.831,-7.92919,196.816,15.2522,2.03103,6391.18,-164.798
3.56,279.596,-7.99356,197.06,12.2276,-151.232,-7663.15,-164.764
3.58,279.408,-8.04471,197.255,9.72215,-125.27,1298.1,-164.738
3.6,279.22,-8.096,197.449,9.73398,0.591525,6293.08,-164.713
3.62,279.033,-8.14732,197.644,9.72439,-0.479545,-53.5535,-164.687
3.64,278.845,-8.19879,197.839,9.73636,0.59829,53.8917,-164.662
3.66,278.657,-8.25038,198.034,9.74806,0.585151,-0.656963,-164.638
3.68,278.469,-8.30211,198.229,9.7599,0.591832,0.334058,-164.615
3.7,278.281,-8.3539,198.423,9.71263,-2.36355,-147.769,-164.592
3.72,278.093,-8.40577,198.618,9.76189,2.46305,241.33,-164.569
3.74,277.905,-8.45771,198.813,9.76282,0.0465245,-120.826,-164.546
3.76,277.716,-8.50997,199.01,9.80712,2.21538,108.443,-164.527
3.78,277.526,-8.56239,199.206,9.82935,1.11106,-55.2161,-164.51
3.8,277.338,-8.61486,199.402,9.78184,-2.37551,-174.329,-164.493
3.82,277.148,-8.6674,199.598,9.83095,2.4556,241.556,-164.476
3.84,276.959,-8.72005,199.795,9.84239,0.572288,-94.1655,-164.46
3.86,276.77,-8.77275,199.991,9.79503,-2.36814,-147.021,-164.444
3.88,276.58,-8.82563,200.189,9.86542,3.5195,294.382,-164.43
3.9,276.39,-8.87855,200.386,9.86623,0.0402152,-173.964,-164.416
3.92,276.201,-8.93152,200.582,9.81861,-2.38096,-121.059,-164.402
3.94,276.011,-8.98454,200.78,9.86743,2.44136,241.116,-164.388
3.96,275.82,-9.03772,200.977,9.88953,1.10462,-66.8374,-164.376
3.98,275.63,-9.09097,201.174,9.85242,-1.85513,-147.987,-164.365
4,275.44,-9.14433,201.373,9.91202,2.97994,241.753,-164.355
4.02,275.25,-9.1977,201.57,9.86415,-2.39375,-268.685,-164.345
4.04,275.059,-9.25107,201.768,9.90219,1.90201,214.788,-164.334
4.06,274.92,-9.29011,201.912,7.20713,-134.753,-6832.75,-164.328
4.08,274.824,-9.31702,202.012,5.0131,-109.702,1252.58,-164.326
4.1,274.728,-9.34394,202.112,4.96522,-2.39386,5365.38,-164.324
4.12,274.633,-9.3708,202.211,4.95431,-0.545647,92.4105,-164.321
4.14,274.537,-9.39772,202.31,4.96522,0.545647,54.5647,-164.319
4.16,274.441,-9.42459,202.41,5.00259,1.86841,66.1382,-164.316
4.18,274.345,-9.45152,202.509,4.96535,-1.86163,-186.502,-164.314
4.2,274.25,-9.47839,202.609,4.95458,-0.53887,66.138,-164.311
4.22,274.154,-9.50534,202.708,4.96549,0.545652,54.2261,-164.309
4.24,274.058,-9.53221,202.808,5.00272,1.86156,65.7956,-164.306
