"time","x","y","position","velocity","acceleration","jerk","heading"
0,33.5,166.5,0,0,38,0,0
0.02,33.5872,166.5,0.0872,0.76,38,0,0
0.04,33.6744,166.5,0.1744,1.52,38,0,0
0.06,33.7615,166.5,0.2615,2.28,38,0,0
0.08,33.8487,166.5,0.3487,3.04,38,0,0
0.1,33.9359,166.5,0.4359,3.8,38,0,0
0.12,34.0231,166.5,0.5231,4.56,38,0,0
0.14,34.1102,166.5,0.6102,5.32,38,0,0
0.16,34.1974,166.5,0.6974,6.08,38,0,0
0.18,34.2846,166.5,0.7846,6.84,38,0,0
0.2,34.3718,166.5,0.8718,7.6,38,0,0
0.22,34.459,166.5,0.959,8.36,38,0,0
0.24,34.6114,166.5,1.1114,9.12,38,0,0
0.26,34.8218,166.5,1.3218,9.88,38,0,0
0.28,35.0323,166.5,1.5323,10.64,38,0,0
0.3,35.2428,166.5,1.7428,11.4,38,0,0
0.32,35.4532,166.5,1.9532,12.16,38,0,0
0.34,35.7134,166.5,2.2134,12.92,38,0,0
0.36,35.9876,166.5,2.4876,13.68,38,0,0
0.38,36.2619,166.5,2.7619,14.44,38,0,0
0.4,36.543,166.5,3.043,15.2,38,0,0
0.42,36.8683,166.5,3.3683,15.96,38,0,0
0.44,37.1937,166.5,3.6937,16.72,38,0,0
0.46,37.5216,166.5,4.0216,17.48,38,0,0
0.48,37.8909,166.5,4.3909,18.24,38,0,0
0.5,38.2602,166.5,4.7602,19,38,0,0
0.52,38.6432,166.5,5.1432,19.76,38,0,0
0.54,39.0517,166.5,5.5517,20.52,38,0,0
0.56,39.4601,166.5,5.9601,21.28,38,0,0
0.58,39.9009,166.5,6.4009,22.04,38,0,0
0.6,40.345,166.5,6.845,22.8,38,0,0
0.62,40.8107,166.5,7.3107,23.56,38,0,0
0.64,41.288,166.5,7.788,24.32,38,0,0
0.66,41.7824,166.5,8.2824,25.08,38,0,0
0.68,42.2905,166.5,8.7905,25.84,38,0,0
0.7,42.8157,166.5,9.3157,26.6,38,0,0
0.72,43.3529,166.5,9.8529,27.36,38,0,0
0.74,43.9102,166.5,10.4102,28.12,38,0,0
0.76,44.475,166.5,10.975,28.88,38,0,0
0.78,45.0649,166.5,11.5649,29.64,38,0,0
0.8,45.6627,166.5,12.1627,30.4,38,0,0
0.82,46.279,166.5,12.779,31.16,38,0,0
0.84,46.9109,166.5,13.4109,31.92,38,0,0
0.86,47.5533,166.5,14.0533,32.68,38,0,0
0.88,48.2171,166.5,14.7171,33.44,38,0,0
0.9,48.8939,166.5,15.3939,34.2,38,0,0
0.92,49.5828,166.5,16.0828,34.96,38,0,0
0.94,50.2909,166.5,16.7909,35.72,38,0,0
0.96,51.014,166.5,17.514,36.48,38,0,0
0.98,51.7501,166.5,18.2501,37.24,28.4949,0,0
1,52.5,166.5,19,38,0,0,0
1.02,53.26,166.5,19.76,38,0,0,0
1.04,54.02,166.5,20.52,38,0,0,0
1.06,54.78,166.5,21.28,38,0,0,0
1.08,55.54,166.5,22.04,38,0,0,0
1.1,56.3,166.5,22.8,38,0,0,0
1.12,57.06,166.5,23.56,38,0,0,0
1.14,57.82,166.5,24.32,38,0,0,0
1.16,58.58,166.5,25.08,38,0,0,0
1.18,59.34,166.5,25.84,38,0,0,0
1.2,60.1,166.5,26.6,38,0,0,0
1.22,60.86,166.5,27.36,38,0,0,0
1.24,61.62,166.5,28.12,38,0,0,0
1.26,62.38,166.5,28.88,38,0,0,0
1.28,63.14,166.5,29.64,38,0,0,0
1.3,63.9,166.5,30.4,38,0,0,0
1.32,64.66,166.5,31.16,38,0,0,0
1.34,65.42,166.5,31.92,38,0,0,0
1.36,66.18,166.5,32.68,38,0,0,0
1.38,66.94,166.5,33.44,38,0,0,0
1.4,67.7,166.5,34.2,38,0,0,0
1.42,68.46,166.5,34.96,38,0,0,0
1.44,69.22,166.5,35.72,38,0,0,0
1.46,69.98,166.5,36.48,38,0,0,0
1.48,70.74,166.5,37.24,38,0,0,0
1.5,71.5,166.5,38,38,0,0,0
1.52,72.26,166.5,38.76,38,0,0,0
1.54,73.02,166.5,39.52,38,0,0,0
1.56,73.78,166.5,40.28,38,0,0,0
1.58,74.54,166.5,41.04,38,0,0,0
1.6,75.3,166.5,41.8,38,0,0,0
1.62,76.06,166.5,42.56,38,0,0,0
1.64,76.82,166.5,43.32,38,0,0,0
1.66,77.58,166.5,44.08,38,0,0,0
1.68,78.34,166.5,44.84,38,0,0,0
1.7,79.1,166.5,45.6,38,0,0,0
1.72,79.86,166.5,46.36,38,0,0,0
1.74,80.62,166.5,47.12,38,0,0,0
1.76,81.38,166.5,47.88,38,0,0,0
1.78,82.14,166.5,48.64,38,0,0,0
1.8,82.9,166.5,49.4,38,0,0,0
1.82,83.66,166.5,50.16,38,0,0,0
1.84,84.42,166.5,50.92,38,0,0,0
1.86,85.18,166.5,51.68,38,0,0,0
1.88,85.94,166.5,52.44,38,0,0,0
1.9,86.7,166.5,53.2,38,0,0,0
1.92,87.46,166.5,53.96,38,0,0,0
1.94,88.22,166.5,54.72,38,0,0,0
1.96,88.98,166.5,55.48,38,0,0,0
1.98,89.74,166.5,56.24,38,0,0,0
2,90.5,166.5,57,38,0,0,0
2.02,91.26,166.5,57.76,38,0,0,0
2.04,92.02,166.5,58.52,38,0,0,0
2.06,92.78,166.5,59.28,38,0,0,0
2.08,93.54,166.5,60.04,38,0,0,0
2.1,94.3,166.5,60.8,38,0,0,0
2.12,95.06,166.5,61.56,38,0,0,0
2.14,95.82,166.5,62.32,38,0,0,0
2.16,96.58,166.5,63.08,38,0,0,0
2.18,97.34,166.5,63.84,38,0,0,0
2.2,98.1,166.5,64.6,38,0,0,0
2.22,98.86,166.5,65.36,38,0,0,0
2.24,99.62,166.5,66.12,38,0,0,0
2.26,100.38,166.5,66.88,38,0,0,0
2.28,101.14,166.5,67.64,38,0,0,0
2.3,101.9,166.5,68.4,38,0,0,0
2.32,102.66,166.5,69.16,38,0,0,0
2.34,103.42,166.5,69.92,38,0,0,0
2.36,104.18,166.5,70.68,38,0,0,0
2.38,104.94,166.5,71.44,38,0,0,0
2.4,105.7,166.5,72.2,38,0,0,0
2.42,106.46,166.5,72.96,38,0,0,0
2.44,107.22,166.5,73.72,38,0,0,0
2.46,107.98,166.5,74.48,38,0,0,0
2.48,108.74,166.5,75.24,38,0,0,0
2.5,109.5,166.5,76,38,0,0,0
2.52,110.26,166.5,76.76,38,0,0,0
2.54,111.02,166.5,77.52,38,0,0,0
2.56,111.78,166.5,78.28,38,0,0,0
2.58,112.54,166.5,79.04,38,0,0,0
2.6,113.3,166.5,79.8,38,0,0,0
2.62,114.06,166.5,80.56,38,0,0,0
2.64,114.82,166.5,81.32,38,0,0,0
2.66,115.58,166.5,82.08,38,0,0,0
2.68,116.34,166.5,82.84,38,0,0,0
2.7,117.1,166.5,83.6,38,0,0,0
2.72,117.86,166.5,84.36,38,0,0,0
2.74,118.62,166.5,85.12,38,0,0,0
2.76,119.38,166.5,85.88,38,0,0,0
2.78,120.14,166.5,86.64,38,0,0,0
2.8,120.9,166.5,87.4,38,0,0,0
2.82,121.66,166.5,88.16,38,0,0,0
2.84,122.42,166.5,88.92,38,0,0,0
2.86,123.18,166.5,89.68,38,0,0,0
2.88,123.94,166.5,90.44,38,0,0,0
2.9,124.7,166.5,91.2,38,0,0,0
2.92,125.46,166.5,91.96,38,0,0,0
2.94,126.22,166.5,92.72,38,0,0,0
2.96,126.98,166.5,93.48,38,0,0,0
2.98,127.74,166.5,94.24,38,0,0,0
3,128.5,166.5,95,38,0,0,0
3.02,129.26,166.5,95.76,38,0,0,0
3.04,130.02,166.5,96.52,38,0,0,0
3.06,130.78,166.5,97.28,38,0,0,0
3.08,131.54,166.5,98.04,38,0,0,0
3.1,132.3,166.5,98.8,38,0,0,0
3.12,133.06,166.5,99.56,38,0,0,0
3.14,133.82,166.5,100.32,38,0,0,0
3.16,134.58,166.5,101.08,38,0,0,0
3.18,135.34,166.5,101.84,38,0,0,0
3.2,136.1,166.5,102.6,38,0,0,0
3.22,136.86,166.5,103.36,38,0,0,0
3.24,137.62,166.5,104.12,38,0,0,0
3.26,138.38,166.5,104.88,38,0,0,0
3.28,139.14,166.5,105.64,38,0,0,0
3.3,139.9,166.5,106.4,38,0,0,0
3.32,140.66,166.5,107.16,38,0,0,0
3.34,141.42,166.5,107.92,38,0,0,0
3.36,142.18,166.5,108.68,38,0,0,0
3.38,142.94,166.5,109.44,38,0,0,0
3.4,143.7,166.5,110.2,38,0,0,0
3.42,144.46,166.5,110.96,38,0,0,0
3.44,145.22,166.5,111.72,38,0,0,0
3.46,145.98,166.5,112.48,38,0,0,0
3.48,146.74,166.5,113.24,38,0,0,0
3.5,147.5,166.5,114,38,0,0,0
3.52,148.26,166.5,114.76,38,0,0,0
3.54,149.02,166.5,115.52,38,0,0,0
3.56,149.78,166.5,116.28,38,0,0,0
3.58,150.54,166.5,117.04,38,0,0,0
3.6,151.3,166.5,117.8,38,0,0,0
3.62,152.06,166.5,118.56,38,0,0,0
3.64,152.82,166.5,119.32,38,0,0,0
3.66,153.58,166.5,120.08,38,0,0,0
3.68,154.34,166.5,120.84,38,0,0,0
3.7,155.1,166.5,121.6,38,0,0,0
3.72,155.86,166.5,122.36,38,0,0,0
3.74,156.62,166.5,123.12,38,0,0,0
3.76,157.38,166.5,123.88,38,0,0,0
3.78,158.14,166.5,124.64,38,0,0,0
3.8,158.9,166.5,125.4,38,0,0,0
3.82,159.66,166.5,126.16,38,0,0,0
3.84,160.42,166.5,126.92,38,0,0,0
3.86,161.18,166.5,127.68,38,0,0,0
3.88,161.94,166.5,128.44,38,0,0,0
3.9,162.7,166.5,129.2,38,0,0,0
3.92,163.46,166.5,129.96,38,0,0,0
3.94,164.22,166.5,130.72,38,0,0,0
3.96,164.98,166.5,131.48,38,0,0,0
3.98,165.74,166.5,132.24,38,0,0,0
4,166.5,166.5,133,38,0,0,0
4.02,167.26,166.5,133.76,38,0,0,0
4.04,168.02,166.5,134.52,38,0,0,0
4.06,168.78,166.5,135.28,38,0,0,0
4.08,169.54,166.5,136.04,38,0,0,0
4.1,170.3,166.5,136.8,38,0,0,0
4.12,171.06,166.5,137.56,38,0,0,0
4.14,171.82,166.5,138.32,38,0,0,0
4.16,172.58,166.5,139.08,38,0,0,0
4.18,173.34,166.5,139.84,38,0,0,0
4.2,174.1,166.5,140.6,38,0,0,0
4.22,174.86,166.5,141.36,38,0,0,0
4.24,175.62,166.5,142.12,38,0,0,0
4.26,176.38,166.5,142.88,38,0,0,0
4.28,177.14,166.5,143.64,38,0,0,0
4.3,177.9,166.5,144.4,38,0,0,0
4.32,178.66,166.5,145.16,38,0,0,0
4.34,179.42,166.5,145.92,38,0,0,0
4.36,180.18,166.5,146.68,38,0,0,0
4.38,180.94,166.5,147.44,38,0,0,0
4.4,181.7,166.5,148.2,38,0,0,0
4.42,182.46,166.5,148.96,38,0,0,0
4.44,183.22,166.5,149.72,38,0,0,0
4.46,183.98,166.5,150.48,38,0,0,0
4.48,184.74,166.5,151.24,38,0,0,0
4.5,185.5,166.5,152,38,0,0,0
4.52,186.26,166.5,152.76,38,0,0,0
4.54,187.02,166.5,153.52,38,0,0,0
4.56,187.78,166.5,154.28,38,0,0,0
4.58,188.54,166.5,155.04,38,0,0,0
4.6,189.3,166.5,155.8,38,0,0,0
4.62,190.06,166.5,156.56,38,0,0,0
4.64,190.82,166.5,157.32,38,0,0,0
4.66,191.58,166.5,158.08,38,0,0,0
4.68,192.34,166.5,158.84,38,0,0,0
4.7,193.1,166.5,159.6,38,0,0,0
4.72,193.86,166.5,160.36,38,0,0,0
4.74,194.62,166.5,161.12,38,0,0,0
4.76,195.38,166.5,161.88,38,0,0,0
4.78,196.14,166.5,162.64,38,0,0,0
4.8,196.9,166.5,163.4,38,0,0,0
4.82,197.66,166.5,164.16,38,0,0,0
4.84,198.42,166.5,164.92,38,0,0,0
4.86,199.18,166.5,165.68,38,0,0,0
4.88,199.94,166.5,166.44,38,0,0,0
4.9,200.7,166.5,167.2,38,0,0,0
4.92,201.46,166.5,167.96,38,0,0,0
4.94,202.22,166.5,168.72,38,0,0,0
4.96,202.98,166.5,169.48,38,0,0,0
4.98,203.74,166.5,170.24,38,0,0,0
5,204.5,166.5,171,38,0,0,0
5.02,205.26,166.5,171.76,38,0,0,0
5.04,206.02,166.5,172.52,38,0,0,0
5.06,206.78,166.5,173.28,38,0,0,0
5.08,207.54,166.5,174.04,38,0,0,0
5.1,208.3,166.5,174.8,38,0,0,0
5.12,209.06,166.5,175.56,38,0,0,0
5.14,209.82,166.5,176.32,38,0,0,0
5.16,210.58,166.5,177.08,38,0,0,0
5.18,211.34,166.5,177.84,38,0,0,0
5.2,212.1,166.5,178.6,38,0,0,0
5.22,212.86,166.5,179.36,38,0,0,0
5.24,213.62,166.5,180.12,38,4.56,0,0
5.26,214.38,166.5,180.88,38,33.44,0,0
5.28,215.131,166.5,181.631,37.36,38,0,0
5.3,215.871,166.5,182.371,36.6,38,0,0
5.32,216.597,166.5,183.097,35.84,38,0,0
5.34,217.305,166.5,183.805,35.08,38,0,0
5.36,217.998,166.5,184.498,34.32,38,0,0
5.38,218.678,166.5,185.178,33.56,38,0,0
5.4,219.342,166.5,185.842,32.8,38,0,0
5.42,219.988,166.5,186.488,32.04,38,0,0
5.44,220.624,166.5,187.124,31.28,38,0,0
5.46,221.24,166.5,187.74,30.52,38,0,0
5.48,221.842,166.5,188.342,29.76,38,0,0
5.5,222.433,166.5,188.933,29,38,0,0
5.52,223.001,166.5,189.501,28.24,38,0,0
5.54,223.562,166.5,190.062,27.48,38,0,0
5.56,224.099,166.5,190.599,26.72,38,0,0
5.58,224.629,166.5,191.129,25.96,38,0,0
5.6,225.137,166.5,191.637,25.2,38,0,0
5.62,225.637,166.5,192.137,24.44,38,0,0
5.64,226.114,166.5,192.614,23.68,38,0,0
5.66,226.585,166.5,193.085,22.92,38,0,0
5.68,227.029,166.5,193.529,22.16,38,0,0
5.7,227.473,166.5,193.973,21.4,38,0,0
5.72,227.884,166.5,194.384,20.64,38,0,0
5.74,228.292,166.5,194.792,19.88,38,0,0
5.76,228.682,166.5,195.182,19.12,38,0,0
5.78,229.051,166.5,195.551,18.36,38,0,0
5.8,229.42,166.5,195.92,17.6,38,0,0
5.82,229.755,166.5,196.255,16.84,38,0,0
5.84,230.08,166.5,196.58,16.08,38,0,0
5.86,230.406,166.5,196.906,15.32,38,0,0
5.88,230.695,166.5,197.195,14.56,38,0,0
5.9,230.969,166.5,197.469,13.8,38,0,0
5.92,231.243,166.5,197.743,13.04,38,0,0
5.94,231.514,166.5,198.014,12.28,38,0,0
5.96,231.724,166.5,198.224,11.52,38,0,0
5.98,231.934,166.5,198.434,10.76,38,0,0
6,232.145,166.5,198.645,10,38,0,0
6.02,232.355,166.5,198.855,9.24,38,0,0
6.04,232.527,166.5,199.027,8.48,38,0,0
6.06,232.614,166.5,199.114,7.72,38,0,0
6.08,232.702,166.5,199.202,6.96,38,0,0
6.1,232.789,166.5,199.289,6.2,38,0,0
6.12,232.876,166.5,199.376,5.44,38,0,0
6.14,232.963,166.5,199.463,4.68,38,0,0
6.16,233.05,166.5,199.55,3.92,38,0,0
6.18,233.138,166.5,199.638,3.16,38,0,0
6.2,233.225,166.5,199.725,2.4,38,0,0
6.22,233.312,166.5,199.812,1.64,38,0,0
6.24,233.399,166.5,199.899,0.88,38,0,0
6.26,233.486,166.5,199.986,0.12,38,0,0
