"time","x","y","position","velocity","acceleration","jerk","heading"
0,20,192.35,0,0,0,0,0
0.02,20.0894,192.35,0.0894,4.47,223.5,11175,0
0.04,20.1789,192.35,0.1789,4.475,0.25,-11162.5,0
0.06,20.2683,192.35,0.2683,4.47,-0.25,-25,0
0.08,20.3578,192.35,0.3578,4.475,0.25,25,0
0.1,20.4472,192.35,0.4472,4.47,-0.25,-25,0
0.12,20.5367,192.35,0.5367,4.475,0.25,25,0
0.14,20.6261,192.35,0.6261,4.47,-0.25,-25,0
0.16,20.7155,192.35,0.7155,4.47,-8.57092e-12,12.5,0
0.18,20.805,192.35,0.805,4.475,0.25,12.5,0
0.2,20.8944,192.35,0.8944,4.47,-0.25,-25,0
0.22,20.9839,192.35,0.9839,4.475,0.25,25,0
0.24,21.177,192.35,1.177,9.655,259,12937.5,0
0.26,21.3929,192.35,1.3929,10.795,57,-10100,0
0.28,21.6089,192.35,1.6089,10.8,0.25,-2837.5,0
0.3,21.8248,192.35,1.8248,10.795,-0.25,-25,0
0.32,22.0531,192.35,2.0531,11.415,31,1562.5,0
0.34,22.3345,192.35,2.3345,14.07,132.75,5087.5,0
0.36,22.6159,192.35,2.6159,14.07,1.08358e-11,-6637.5,0
0.38,22.8973,192.35,2.8973,14.07,-1.95399e-12,-6.39488e-10,0
0.4,23.212,192.35,3.212,15.735,83.25,4162.5,0
0.42,23.5458,192.35,3.5458,16.69,47.75,-1775,0
0.44,23.8796,192.35,3.8796,16.69,-2.30926e-12,-2387.5,0
0.46,24.2422,192.35,4.2422,18.13,72,3600,0
0.48,24.6211,192.35,4.6211,18.945,40.75,-1562.5,0
0.5,25,192.35,5,18.945,6.21725e-12,-2037.5,0
0.52,25.4191,192.35,5.4191,20.955,100.5,5025,0
0.54,25.8382,192.35,5.8382,20.955,0,-5025,0
0.56,26.2798,192.35,6.2798,22.08,56.25,2812.5,0
0.58,26.7355,192.35,6.7355,22.785,35.25,-1050,0
0.6,27.2054,192.35,7.2054,23.495,35.5,12.5,0
0.62,27.6951,192.35,7.6951,24.485,49.5,700,0
0.64,28.1967,192.35,8.1967,25.08,29.75,-987.5,0
0.66,28.718,192.35,8.718,26.065,49.25,975,0
0.68,29.253,192.35,9.253,26.75,34.25,-750,0
0.7,29.8041,192.35,9.8041,27.555,40.25,300,0
0.72,30.3736,192.35,10.3736,28.475,46,287.5,0
0.74,30.9531,192.35,10.9531,28.975,25,-1050,0
0.76,31.5574,192.35,11.5574,30.215,62,1850,0
0.78,32.1708,192.35,12.1708,30.67,22.75,-1962.5,0
0.8,32.8032,192.35,12.8032,31.62,47.5,1237.5,0
0.82,33.4526,192.35,13.4526,32.47,42.5,-250,0
0.84,34.1137,192.35,14.1137,33.055,29.25,-662.5,0
0.86,34.7948,192.35,14.7948,34.055,50,1037.5,0
0.88,35.492,192.35,15.492,34.86,40.25,-487.5,0
0.9,36.2024,192.35,16.2024,35.52,33,-362.5,0
0.92,36.929,192.35,16.929,36.33,40.5,375,0
0.94,37.6751,192.35,17.6751,37.305,48.75,412.5,0
0.96,38.4353,192.35,18.4353,38.01,35.25,-675,0
0.98,39.2101,192.35,19.2101,38.74,36.5,62.5,0
1,40,192.35,20,39.495,37.75,62.5,0
1.02,40.8,192.35,20.8,40,25.25,-625,0
1.04,41.6,192.35,21.6,40,1.77636e-11,-1262.5,0
1.06,42.4,192.35,22.4,40,-1.77636e-11,-1.77636e-09,0
1.08,43.2,192.35,23.2,40,1.77636e-11,1.77636e-09,0
1.1,44,192.35,24,40,-1.77636e-11,-1.77636e-09,0
1.12,44.8,192.35,24.8,40,0,8.88178e-10,0
1.14,45.6,192.35,25.6,40,4.01457e-11,2.00728e-09,0
1.16,46.4,192.35,26.4,40,-4.01457e-11,-4.01457e-09,0
1.18,47.2,192.35,27.2,40,1.77636e-11,2.89546e-09,0
1.2,48,192.35,28,40,-1.77636e-11,-1.77636e-09,0
1.22,48.8,192.35,28.8,40,0,8.88178e-10,0
1.24,49.6,192.35,29.6,40,1.77636e-11,8.88178e-10,0
1.26,50.4,192.35,30.4,40,-1.77636e-11,-1.77636e-09,0
1.28,51.2,192.35,31.2,40,1.77636e-11,1.77636e-09,0
1.3,52,192.35,32,40,-1.77636e-11,-1.77636e-09,0
1.32,52.8,192.35,32.8,40,0,8.88178e-10,0
1.34,53.6,192.35,33.6,40,1.77636e-11,8.88178e-10,0
1.36,54.4,192.35,34.4,40,-1.77636e-11,-1.77636e-09,0
1.38,55.2,192.35,35.2,40,4.01457e-11,2.89546e-09,0
1.4,56,192.35,36,40,-4.01457e-11,-4.01457e-09,0
1.42,56.8,192.35,36.8,40,0,2.00728e-09,0
1.44,57.6,192.35,37.6,40,1.77636e-11,8.88178e-10,0
1.46,58.4,192.35,38.4,40,-1.77636e-11,-1.77636e-09,0
1.48,59.2,192.35,39.2,40,1.77636e-11,1.77636e-09,0
1.5,60,192.35,40,40,-1.77636e-11,-1.77636e-09,0
1.52,60.8,192.35,40.8,40,0,8.88178e-10,0
1.54,61.6,192.35,41.6,40,1.77636e-11,8.88178e-10,0
1.56,62.4,192.35,42.4,40,-1.77636e-11,-1.77636e-09,0
1.58,63.2,192.35,43.2,40,1.77636e-11,1.77636e-09,0
1.6,64,192.35,44,40,-1.77636e-11,-1.77636e-09,0
1.62,64.8,192.35,44.8,40,0,8.88178e-10,0
1.64,65.6,192.35,45.6,40,2.23821e-11,1.1191e-09,0
1.66,66.4,192.35,46.4,40,1.3145e-11,-4.61853e-10,0
1.68,67.2,192.35,47.2,40,-3.55271e-11,-2.43361e-09,0
1.7,68,192.35,48,40,0,1.77636e-09,0
1.72,68.8,192.35,48.8,40,0,0,0
1.74,69.6,192.35,49.6,40,0,0,0
1.76,70.4,192.35,50.4,40,3.55271e-11,1.77636e-09,0
1.78,71.2,192.35,51.2,40,-3.55271e-11,-3.55271e-09,0
1.8,72,192.35,52,40,0,1.77636e-09,0
1.82,72.8,192.35,52.8,40,0,0,0
1.84,73.6,192.35,53.6,40,0,0,0
1.86,74.4,192.35,54.4,40,3.55271e-11,1.77636e-09,0
1.88,75.2,192.35,55.2,40,-1.3145e-11,-2.43361e-09,0
1.9,76,192.35,56,40,-2.23821e-11,-4.61853e-10,0
1.92,76.8,192.35,56.8,40,0,1.1191e-09,0
1.94,77.6,192.35,57.6,40,0,0,0
1.96,78.4,192.35,58.4,40,3.55271e-11,1.77636e-09,0
1.98,79.2,192.35,59.2,40,-3.55271e-11,-3.55271e-09,0
2,80,192.35,60,40,0,1.77636e-09,0
2.02,80.8,192.35,60.8,40,0,0,0
2.04,81.6,192.35,61.6,40,0,0,0
2.06,82.4,192.35,62.4,40,3.55271e-11,1.77636e-09,0
2.08,83.2,192.35,63.2,40,-3.55271e-11,-3.55271e-09,0
2.1,84,192.35,64,40,0,1.77636e-09,0
2.12,84.8,192.35,64.8,40,0,0,0
2.14,85.6,192.35,65.6,40,0,0,0
2.16,86.4,192.35,66.4,40,3.55271e-11,1.77636e-09,0
2.18,87.2,192.35,67.2,40,-3.55271e-11,-3.55271e-09,0
2.2,88,192.35,68,40,0,1.77636e-09,0
2.22,88.8,192.35,68.8,40,0,0,0
2.24,89.6,192.35,69.6,40,0,0,0
2.26,90.4,192.35,70.4,40,7.99361e-11,3.9968e-09,0
2.28,91.2,192.35,71.2,40,-7.99361e-11,-7.99361e-09,0
2.3,92,192.35,72,40,0,3.9968e-09,0
2.32,92.8,192.35,72.8,40,0,0,0
2.34,93.6,192.35,73.6,40,0,0,0
2.36,94.4,192.35,74.4,40,3.55271e-11,1.77636e-09,0
2.38,95.2,192.35,75.2,40,-3.55271e-11,-3.55271e-09,0
2.4,96,192.35,76,40,0,1.77636e-09,0
2.42,96.8,192.35,76.8,40,0,0,0
2.44,97.6,192.35,77.6,40,0,0,0
2.46,98.4,192.35,78.4,40,3.55271e-11,1.77636e-09,0
2.48,99.2,192.35,79.2,40,-3.55271e-11,-3.55271e-09,0
2.5,100,192.35,80,40,0,1.77636e-09,0
2.52,100.8,192.35,80.8,40,0,0,0
2.54,101.6,192.35,81.6,40,0,0,0
2.56,102.4,192.35,82.4,40,3.55271e-11,1.77636e-09,0
2.58,103.2,192.35,83.2,40,-3.55271e-11,-3.55271e-09,0
2.6,104,192.35,84,40,0,1.77636e-09,0
2.62,104.8,192.35,84.8,40,0,0,0
2.64,105.6,192.35,85.6,40,0,0,0
2.66,106.4,192.35,86.4,40,3.55271e-11,1.77636e-09,0
2.68,107.2,192.35,87.2,40,-3.55271e-11,-3.55271e-09,0
2.7,108,192.35,88,40,0,1.77636e-09,0
2.72,108.8,192.35,88.8,40,0,0,0
2.74,109.6,192.35,89.6,40,0,0,0
2.76,110.4,192.35,90.4,40,7.99361e-11,3.9968e-09,0
2.78,111.2,192.35,91.2,40,-7.99361e-11,-7.99361e-09,0
2.8,112,192.35,92,40,0,3.9968e-09,0
2.82,112.8,192.35,92.8,40,0,0,0
2.84,113.6,192.35,93.6,40,0,0,0
2.86,114.4,192.35,94.4,40,3.55271e-11,1.77636e-09,0
2.88,115.2,192.35,95.2,40,-3.55271e-11,-3.55271e-09,0
2.9,116,192.35,96,40,0,1.77636e-09,0
2.92,116.8,192.35,96.8,40,0,0,0
2.94,117.6,192.35,97.6,40,0,0,0
2.96,118.4,192.35,98.4,40,3.55271e-11,1.77636e-09,0
2.98,119.2,192.35,99.2,40,-3.55271e-11,-3.55271e-09,0
3,120,192.35,100,40,0,1.77636e-09,0
3.02,120.8,192.35,100.8,40,0,0,0
3.04,121.6,192.35,101.6,40,0,0,0
3.06,122.4,192.35,102.4,40,3.55271e-11,1.77636e-09,0
3.08,123.2,192.35,103.2,40,-3.55271e-11,-3.55271e-09,0
3.1,124,192.35,104,40,0,1.77636e-09,0
3.12,124.8,192.35,104.8,40,0,0,0
3.14,125.6,192.35,105.6,40,0,0,0
3.16,126.4,192.35,106.4,40,3.55271e-11,1.77636e-09,0
3.18,127.2,192.35,107.2,40,-3.55271e-11,-3.55271e-09,0
3.2,128,192.35,108,40,0,1.77636e-09,0
3.22,128.8,192.35,108.8,40,3.55271e-11,1.77636e-09,0
3.24,129.6,192.35,109.6,40,-7.10543e-11,-5.32907e-09,0
3.26,130.4,192.35,110.4,40,1.15463e-10,9.32587e-09,0
3.28,131.2,192.35,111.2,40,-1.15463e-10,-1.15463e-08,0
3.3,132,192.35,112,40,7.10543e-11,9.32587e-09,0
3.32,132.8,192.35,112.8,40,0,-3.55271e-09,0
3.34,133.6,192.35,113.6,40,-7.10543e-11,-3.55271e-09,0
3.36,134.4,192.35,114.4,40,7.10543e-11,7.10543e-09,0
3.38,135.2,192.35,115.2,40,-7.10543e-11,-7.10543e-09,0
3.4,136,192.35,116,40,7.10543e-11,7.10543e-09,0
3.42,136.8,192.35,116.8,40,0,-3.55271e-09,0
3.44,137.6,192.35,117.6,40,-7.10543e-11,-3.55271e-09,0
3.46,138.4,192.35,118.4,40,7.10543e-11,7.10543e-09,0
3.48,139.2,192.35,119.2,40,-7.10543e-11,-7.10543e-09,0
3.5,140,192.35,120,40,7.10543e-11,7.10543e-09,0
3.52,140.8,192.35,120.8,40,0,-3.55271e-09,0
3.54,141.6,192.35,121.6,40,-7.10543e-11,-3.55271e-09,0
3.56,142.4,192.35,122.4,40,7.10543e-11,7.10543e-09,0
3.58,143.2,192.35,123.2,40,-7.10543e-11,-7.10543e-09,0
3.6,144,192.35,124,40,7.10543e-11,7.10543e-09,0
3.62,144.8,192.35,124.8,40,0,-3.55271e-09,0
3.64,145.6,192.35,125.6,40,-7.10543e-11,-3.55271e-09,0
3.66,146.4,192.35,126.4,40,7.10543e-11,7.10543e-09,0
3.68,147.2,192.35,127.2,40,-7.10543e-11,-7.10543e-09,0
3.7,148,192.35,128,40,7.10543e-11,7.10543e-09,0
3.72,148.8,192.35,128.8,40,0,-3.55271e-09,0
3.74,149.6,192.35,129.6,40,-7.10543e-11,-3.55271e-09,0
3.76,150.4,192.35,130.4,40,1.15463e-10,9.32587e-09,0
3.78,151.2,192.35,131.2,40,-1.15463e-10,-1.15463e-08,0
3.8,152,192.35,132,40,7.10543e-11,9.32587e-09,0
3.82,152.8,192.35,132.8,40,0,-3.55271e-09,0
3.84,153.6,192.35,133.6,40,-7.10543e-11,-3.55271e-09,0
3.86,154.4,192.35,134.4,40,7.10543e-11,7.10543e-09,0
3.88,155.2,192.35,135.2,40,-7.10543e-11,-7.10543e-09,0
3.9,156,192.35,136,40,7.10543e-11,7.10543e-09,0
3.92,156.8,192.35,136.8,40,0,-3.55271e-09,0
3.94,157.6,192.35,137.6,40,-7.10543e-11,-3.55271e-09,0
3.96,158.4,192.35,138.4,40,7.10543e-11,7.10543e-09,0
3.98,159.2,192.35,139.2,40,-7.10543e-11,-7.10543e-09,0
4,160,192.35,140,40,7.10543e-11,7.10543e-09,0
4.02,160.8,192.35,140.8,40,4.44089e-11,-1.33227e-09,0
4.04,161.6,192.35,141.6,40,-1.59872e-10,-1.02141e-08,0
4.06,162.4,192.35,142.4,40,1.59872e-10,1.59872e-08,0
4.08,163.2,192.35,143.2,40,-1.59872e-10,-1.59872e-08,0
4.1,164,192.35,144,40,1.59872e-10,1.59872e-08,0
4.12,164.8,192.35,144.8,40,-8.88178e-11,-1.24345e-08,0
4.14,165.6,192.35,145.6,40,1.77636e-11,5.32907e-09,0
4.16,166.4,192.35,146.4,40,-1.77636e-11,-1.77636e-09,0
4.18,167.2,192.35,147.2,40,1.77636e-11,1.77636e-09,0
4.2,168,192.35,148,40,-1.77636e-11,-1.77636e-09,0
4.22,168.8,192.35,148.8,40,8.88178e-11,5.32907e-09,0
4.24,169.6,192.35,149.6,40,-1.59872e-10,-1.24345e-08,0
4.26,170.4,192.35,150.4,40,1.59872e-10,1.59872e-08,0
4.28,171.2,192.35,151.2,40,-1.59872e-10,-1.59872e-08,0
4.3,172,192.35,152,40,1.59872e-10,1.59872e-08,0
4.32,172.8,192.35,152.8,40,-8.88178e-11,-1.24345e-08,0
4.34,173.6,192.35,153.6,40,1.77636e-11,5.32907e-09,0
4.36,174.4,192.35,154.4,40,-1.77636e-11,-1.77636e-09,0
4.38,175.2,192.35,155.2,40,1.77636e-11,1.77636e-09,0
4.4,176,192.35,156,40,-1.77636e-11,-1.77636e-09,0
4.42,176.8,192.35,156.8,40,8.88178e-11,5.32907e-09,0
4.44,177.6,192.35,157.6,40,-1.59872e-10,-1.24345e-08,0
4.46,178.4,192.35,158.4,40,1.59872e-10,1.59872e-08,0
4.48,179.2,192.35,159.2,40,-1.59872e-10,-1.59872e-08,0
4.5,180,192.35,160,40,1.59872e-10,1.59872e-08,0
4.52,180.8,192.35,160.8,40,0,-7.99361e-09,0
4.54,181.6,192.35,161.6,40,-1.59872e-10,-7.99361e-09,0
4.56,182.4,192.35,162.4,40,1.59872e-10,1.59872e-08,0
4.58,183.2,192.35,163.2,40,-1.59872e-10,-1.59872e-08,0
4.6,184,192.35,164,40,1.59872e-10,1.59872e-08,0
4.62,184.8,192.35,164.8,40,-8.88178e-11,-1.24345e-08,0
4.64,185.6,192.35,165.6,40,1.77636e-11,5.32907e-09,0
4.66,186.4,192.35,166.4,40,-1.77636e-11,-1.77636e-09,0
4.68,187.2,192.35,167.2,40,1.77636e-11,1.77636e-09,0
4.7,188,192.35,168,40,-1.77636e-11,-1.77636e-09,0
4.72,188.8,192.35,168.8,40,8.88178e-11,5.32907e-09,0
4.74,189.6,192.35,169.6,40,-1.59872e-10,-1.24345e-08,0
4.76,190.4,192.35,170.4,40,1.59872e-10,1.59872e-08,0
4.78,191.2,192.35,171.2,40,-1.59872e-10,-1.59872e-08,0
4.8,192,192.35,172,40,1.59872e-10,1.59872e-08,0
4.82,192.8,192.35,172.8,40,-8.88178e-11,-1.24345e-08,0
4.84,193.6,192.35,173.6,40,1.77636e-11,5.32907e-09,0
4.86,194.4,192.35,174.4,40,-1.77636e-11,-1.77636e-09,0
4.88,195.2,192.35,175.2,40,1.77636e-11,1.77636e-09,0
4.9,196,192.35,176,40,-1.77636e-11,-1.77636e-09,0
4.92,196.8,192.35,176.8,40,8.88178e-11,5.32907e-09,0
4.94,197.6,192.35,177.6,40,-1.59872e-10,-1.24345e-08,0
4.96,198.4,192.35,178.4,40,1.59872e-10,1.59872e-08,0
4.98,199.2,192.35,179.2,40,-1.59872e-10,-1.59872e-08,0
5,200,192.35,180,40,1.59872e-10,1.59872e-08,0
5.02,200.79,192.35,180.79,39.5,-25,-1250,0
5.04,201.565,192.35,181.565,38.75,-37.5,-625,0
5.06,202.325,192.35,182.325,38,-37.5,4.97948e-09,0
5.08,203.071,192.35,183.071,37.3,-35,125,0
5.1,203.798,192.35,183.798,36.35,-47.5,-625,0
5.12,204.508,192.35,184.508,35.5,-42.5,250,0
5.14,205.205,192.35,185.205,34.85,-32.5,500,0
5.16,205.886,192.35,185.886,34.05,-40,-375,0
5.18,206.547,192.35,186.547,33.05,-50,-500,0
5.2,207.197,192.35,187.197,32.5,-27.5,1125,0
5.22,207.829,192.35,187.829,31.6,-45,-875,0
5.24,208.443,192.35,188.443,30.7,-45,-6.93454e-09,0
5.26,209.047,192.35,189.047,30.2,-25,1000,0
5.28,209.626,192.35,189.626,28.95,-62.5,-1875,0
5.3,210.196,192.35,190.196,28.5,-22.5,2000,0
5.32,210.747,192.35,190.747,27.55,-47.5,-1250,0
5.34,211.282,192.35,191.282,26.75,-40,375,0
5.36,211.803,192.35,191.803,26.05,-35,250,0
5.38,212.305,192.35,192.305,25.1,-47.5,-625,0
5.4,212.795,192.35,192.795,24.5,-30,875,0
5.42,213.265,192.35,193.265,23.5,-50,-1000,0
5.44,213.72,192.35,193.72,22.75,-37.5,625,0
5.46,214.162,192.35,194.162,22.1,-32.5,250,0
5.48,214.581,192.35,194.581,20.95,-57.5,-1250,0
5.5,215,192.35,195,20.95,1.17595e-10,2875,0
5.52,215.379,192.35,195.379,18.95,-100,-5000,0
5.54,215.758,192.35,195.758,18.95,2.89546e-11,5000,0
5.56,216.12,192.35,196.12,18.1,-42.5,-2125,0
5.58,216.454,192.35,196.454,16.7,-70,-1375,0
5.6,216.788,192.35,196.788,16.7,3.71259e-11,3500,0
5.62,217.103,192.35,197.103,15.75,-47.5,-2375,0
5.64,217.384,192.35,197.384,14.05,-85,-1875,0
5.66,217.666,192.35,197.666,14.1,2.5,4375,0
5.68,217.947,192.35,197.947,14.05,-2.5,-250,0
5.7,218.175,192.35,198.175,11.4,-132.5,-6500,0
5.72,218.391,192.35,198.391,10.8,-30,5125,0
5.74,218.607,192.35,198.607,10.8,4.70735e-11,1500,0
5.76,218.823,192.35,198.823,10.8,2.39808e-11,-1.15463e-09,0
5.78,219.016,192.35,199.016,9.65,-57.5,-2875,0
5.8,219.106,192.35,199.106,4.5,-257.5,-10000,0
5.82,219.195,192.35,199.195,4.45,-2.5,12750,0
5.84,219.284,192.35,199.284,4.45,9.90319e-12,125,0
5.86,219.374,192.35,199.374,4.5,2.5,125,0
5.88,219.463,192.35,199.463,4.45,-2.5,-250,0
5.9,219.553,192.35,199.553,4.5,2.5,250,0
5.92,219.642,192.35,199.642,4.45,-2.5,-250,0
5.94,219.732,192.35,199.732,4.5,2.5,250,0
5.96,219.821,192.35,199.821,4.45,-2.5,-250,0
5.98,219.911,192.35,199.911,4.5,2.5,250,0
6,220,192.35,200,4.45,-2.5,-250,0
